time,ecg_signal,mechanical_signal
# Condition: irregular
# Heart Rate: 76.26 bpm
# Duration: 10.0 s
# Sampling Rate: 250 Hz

0.0,-0.03158026834620104,0.0
0.004001600640256103,-0.0018007328788507495,0.0
0.008003201280512205,-0.01550160439009233,0.0
0.012004801920768308,0.005342444668168499,0.0
0.01600640256102441,0.004404788023528112,0.0
0.020008003201280513,-0.006983314172320599,0.0
0.024009603841536616,-0.02331716639043495,0.0
0.028011204481792718,-0.008432437556541128,0.00491068618478574
0.03201280512204882,-0.002069928037532094,0.005190697550544941
0.03601440576230493,-0.010118310679048755,0.0076011746777792846
0.040016006402561026,-0.014510619095253578,0.008431917119146577
0.044017607042817125,-0.013964775050038606,0.00911685530450089
0.04801920768307323,0.0020918308421027532,0.010202750587406505
0.05202080832332934,-0.02031702864874573,0.013828536334589159
0.056022408963585436,0.0018507822205074793,0.015139768213907761
0.060024009603841535,0.001925783501067025,0.015461639038625824
0.06402561024409764,0.012830217678572835,0.017035021757235685
0.06802721088435375,0.0009039202797922662,0.01929140210025838
0.07202881152460985,-0.0034076174607307187,0.02146290448143161
0.07603041216486595,-0.019260984778321222,0.01687749497588785
0.08003201280512205,0.009198874698521046,0.019756752265085904
0.08403361344537816,-0.024090000168410425,0.017634069104060412
0.08803521408563425,0.00533661910183641,0.017102783219866923
0.09203681472589036,-0.025506571287981547,0.01841292538060918
0.09603841536614646,0.010947974114430053,0.017467588397635098
0.10004001600640257,-0.0034540406526329093,0.014371682251347535
0.10404161664665867,-0.008807113572163981,0.016055505728094284
0.10804321728691477,-0.006468794972358404,0.017164046652965944
0.11204481792717087,0.0020105625793040483,0.019336624219482346
0.11604641856742698,-0.035942946220127094,0.017910080450663564
0.12004801920768307,0.015202534040198968,0.019704813120821403
0.12404961984793918,-0.010243693190675475,0.021081930627903395
0.12805122048819528,0.016226804891585078,0.018459760313233462
0.13205282112845138,-0.005924565606036522,0.019541459806438715
0.1360544217687075,0.007480600979183475,0.020247891538583175
0.1400560224089636,-0.012469041523457715,0.018565450774063283
0.1440576230492197,0.013526268595980469,0.024013968776737254
0.1480592236894758,-0.016841930939272137,0.02584806129496827
0.1520608243297319,0.013300194496582119,0.024445885457252077
0.156062424969988,0.0020002804904422603,0.02553871846704091
0.1600640256102441,-0.023377749782273104,0.022714019589622735
0.1640656262505002,-0.009407581406100495,0.023047405679636302
0.16806722689075632,-0.017303012052054145,0.02102008860314662
0.1720688275310124,0.007979626400414039,0.021421009676775873
0.1760704281712685,0.003136545955418767,0.02350280730918691
0.18007202881152462,-0.002403773908477101,0.02420147491329923
0.1840736294517807,0.03660151214459196,0.023506627355567813
0.18807523009203683,-0.0008859093094811719,0.02682919415123512
0.19207683073229292,-0.015798822665858563,0.022702983190264443
0.19607843137254902,0.003280220200211335,0.023029604491932525
0.20008003201280514,0.014368080761260747,0.022677545371139574
0.20408163265306123,0.01548334450367035,0.020642028984502125
0.20808323329331735,0.01449632411465021,0.020094550952992833
0.21208483393357344,0.016706682208128907,0.024622810642893372
0.21608643457382953,0.015144764584619072,0.022821650288074417
0.22008803521408565,-0.0040179683791564365,0.023175029168607947
0.22408963585434175,0.015262536937599984,0.021066202706518128
0.22809123649459784,-0.013444918587753325,0.0212322574806382
0.23209283713485396,0.0006162504483861183,0.02332885449028033
0.23609443777511005,0.0024015919402687724,0.021947805607190528
0.24009603841536614,-0.005912676184316976,0.023082805255608373
0.24409763905562226,-0.003203916285145837,0.02274720088690905
0.24809923969587835,0.005487246994053156,0.022131168777853972
0.25210084033613445,0.002623314014231358,0.024016742888252465
0.25610244097639057,0.010208964465049248,0.025733624963045373
0.2601040416166467,-0.007784352094060892,0.020137968664934298
0.26410564225690275,0.03590373994968648,0.020373655128200968
0.26810724289715887,0.004503867581389193,0.01883637360749108
0.272108843537415,-0.008712774190286805,0.01882450845873903
0.27611044417767105,-0.006490843969887301,0.017443551615310204
0.2801120448179272,0.005856664416767091,0.015443835420118079
0.2841136454581833,0.017475815650708385,0.014777157177561732
0.2881152460984394,0.009954617629302463,0.013389747712039494
0.2921168467386955,-0.002382191756927388,0.016617738444037407
0.2961184473789516,-0.011751484534834827,0.016693295069251764
0.3001200480192077,0.006793545411373417,0.01567481640769459
0.3041216486594638,-0.01760941497609226,0.014593467833339242
0.3081232492997199,0.019785367244822685,0.015408344648031744
0.312124849939976,-0.009380861448116893,0.017752364695921244
0.3161264505802321,0.006679092013519766,0.01838088076158637
0.3201280512204882,-0.004766398189278792,0.0182531037824871
0.32412965186074433,-0.008997421276149184,0.01922718368619486
0.3281312525010004,0.011271911881873127,0.019875648654408745
0.3321328531412565,-0.01298521012094486,0.021026408036418275
0.33613445378151263,-0.005158742900813249,0.022892548585263225
0.3401360544217687,3.370775394107618e-05,0.018768279227872647
0.3441376550620248,-0.00428892651722486,0.019106523490099035
0.34813925570228094,0.0035246529489594085,0.01849286771315402
0.352140856342537,-0.010283576930235511,0.018882636869451845
0.3561424569827931,-0.024740964522831716,0.019724700040751376
0.36014405762304924,-0.003340030533491468,0.01902641735693799
0.36414565826330536,-0.022146990281844754,0.01828066575296252
0.3681472589035614,-0.017934034304203622,0.01791547987733197
0.37214885954381755,-0.010835538654667869,0.01675506286761876
0.37615046018407367,-0.0006006008398557717,0.01624675480390157
0.38015206082432973,-0.0012636295129544693,0.015107597552627165
0.38415366146458585,0.009973839161391463,0.015878185782711288
0.38815526210484197,0.009232647803197493,0.014938845287188043
0.39215686274509803,0.023880839353219285,0.017344081161096387
0.39615846338535415,0.009316735311147297,0.019391629587442342
0.4001600640256103,-0.013960966692722334,0.01967745418898637
0.40416166466586634,0.014207963026409932,0.018018080711436738
0.40816326530612246,-0.0071399386708984915,0.016195391831010073
0.4121648659463786,-0.012736786730606261,0.01694413235550531
0.4161664665866347,-0.01246420127529303,0.01837455426704014
0.42016806722689076,0.027239828152430125,0.02142106845883034
0.4241696678671469,-0.0038036564947709142,0.022321728913178848
0.428171268507403,-0.011729363975608868,0.02289355771794861
0.43217286914765907,-0.0011783198256066325,0.021255691175277886
0.4361744697879152,-0.010406635650080789,0.021846571410659557
0.4401760704281713,-0.009827473287168506,0.02038329832923726
0.44417767106842737,-0.004964366696481102,0.01953274718148594
0.4481792717086835,0.016678534373317136,0.022083590541168076
0.4521808723489396,0.003324717709568884,0.022581661076264834
0.4561824729891957,0.01786463699705318,0.024209067692192953
0.4601840736294518,-0.0011790334680518515,0.022841377119815338
0.4641856742697079,0.01566977291085,0.023023930536955308
0.468187274909964,0.010242848205086804,0.0208386523805525
0.4721888755502201,0.0037688032332843383,0.020161865337680288
0.4761904761904762,-0.002474837910693271,0.02058444319291002
0.4801920768307323,0.0031040830380025444,0.018892114241263393
0.4841936774709884,0.012409805819921621,0.020559789364504647
0.4881952781112445,0.005769886200339986,0.018762575400031924
0.49219687875150064,-0.006884069713042121,0.019261037166490105
0.4961984793917567,0.005221971299891379,0.01661803129663847
0.5002000800320128,0.025445417563218546,0.01661261166474046
0.5042016806722689,0.010244818129679218,0.015173546207933234
0.508203281312525,0.005694006919358776,0.015472999610247937
0.5122048819527811,0.005274205635122467,0.01578448968281395
0.5162064825930373,0.007592845794873011,0.015153540742405379
0.5202080832332934,-0.00011518784414391087,0.015452051793007385
0.5242096838735495,0.006478498825827244,0.013670572757014138
0.5282112845138055,-0.018480419740367956,0.017110309683194398
0.5322128851540616,0.017898691006107945,0.015925438838134454
0.5362144857943177,-0.023790240496422258,0.016627510698605973
0.5402160864345739,0.008033146255216918,0.015011014979054339
0.54421768707483,0.020578312847782745,0.014598943425930528
0.5482192877150861,0.008047320484604954,0.014030811501930248
0.5522208883553421,-0.02766241092701131,0.0146533750004092
0.5562224889955982,0.00430673398395578,0.017044373182855076
0.5602240896358543,0.010957539734155097,0.017897886913586968
0.5642256902761105,-0.00592691092620554,0.0207000260188223
0.5682272909163666,-0.018450483724484115,0.02087870576400559
0.5722288915566227,0.018704667662170323,0.023266594728766493
0.5762304921968788,-0.0064806550413317905,0.020561215723467866
0.5802320928371348,0.006076859338760496,0.023269626284911735
0.584233693477391,0.0014170571486833692,0.023053907344093103
0.5882352941176471,-0.005150913324534875,0.023937657600350774
0.5922368947579032,0.022913082553494044,0.023678607130777983
0.5962384953981593,-0.011362996211625676,0.026529719198176763
0.6002400960384154,-0.003194128323650017,0.028430870820427317
0.6042416966786714,0.008427417852295125,0.02656492471502239
0.6082432973189276,-0.00655661547332027,0.02472664693944138
0.6122448979591837,-0.0010928336586971128,0.021247649194045835
0.6162464985994398,-0.020300203715262723,0.020799466129897252
0.6202480992396959,0.010382140264484004,0.021162519452079424
0.624249699879952,0.013834286293722091,0.021678102245975116
0.6282513005202081,0.0006358120515558808,0.01787331958774879
0.6322529011604642,-0.014516026426241724,0.01851407998668814
0.6362545018007203,-0.0070205828694938355,0.017829742610860563
0.6402561024409764,-0.0009391419118235774,0.01707805056716087
0.6442577030812325,0.009627236903664297,0.017365679358178766
0.6482593037214887,0.0024655585317560885,0.016071538350056667
0.6522609043617448,-0.022831315385910992,0.017215017404865453
0.6562625050020008,-0.009646974160277525,0.01636894239843645
0.6602641056422569,0.02092065703230031,0.01840581323059886
0.664265706282513,0.02357000491980732,0.018696544148521826
0.6682673069227691,-0.006426460930480244,0.015279628068157552
0.6722689075630253,-0.006748999089047712,0.015009719998970909
0.6762705082032814,0.0016715480611142488,0.014896428447028282
0.6802721088435374,0.005859873489169995,0.017136213741123348
0.6842737094837935,0.005345405501806276,0.017616760060227034
0.6882753101240496,-0.018417303140557163,0.020699958000400264
0.6922769107643058,0.01596882749140963,0.02120840737220823
0.6962785114045619,-0.008197286332761287,0.020593304940399054
0.700280112044818,0.001004573899073112,0.019491552998021425
0.704281712685074,-0.007601765656864415,0.01965260845383535
0.7082833133253301,0.018635187186641162,0.01830658915547229
0.7122849139655862,0.016125391003766962,0.018046101490630816
0.7162865146058424,-0.015033819251136475,0.020763930355809684
0.7202881152460985,0.00522196527001321,0.021750038546766663
0.7242897158863546,0.004758669316408993,0.022641313953890758
0.7282913165266107,0.0007284605549693956,0.019247287129821728
0.7322929171668667,-0.015375548330269533,0.018929260157010235
0.7362945178071229,0.012463863584925109,0.01857387289196906
0.740296118447379,0.007530045501311178,0.017416246164172082
0.7442977190876351,0.02900007372908342,0.018754677970051016
0.7482993197278912,0.00990419256604942,0.018517226413381917
0.7523009203681473,0.012741897258783825,0.0189972693165309
0.7563025210084033,-0.0119260737677685,0.018199342005459113
0.7603041216486595,0.004629942921019708,0.01975901475045298
0.7643057222889156,0.011644654899017849,0.018833263485222955
0.7683073229291717,-0.00497385636943548,0.017521045055635724
0.7723089235694278,-0.01671674407590692,0.02075584849531083
0.7763105242096839,-0.006970397349391152,0.022139726363563303
0.7803121248499401,-0.004750362527184034,0.022939009414891864
0.7843137254901961,-0.009483967684970304,0.021895751953712565
0.7883153261304522,0.011188162446402238,0.020108226354847304
0.7923169267707083,-0.0033125687122277396,0.019581216185729493
0.7963185274109644,0.015413507934146002,0.019542635609496487
0.8003201280512205,0.004832147548480556,0.021402098989425796
0.8043217286914767,0.001564535937506446,0.022372711159235302
0.8083233293317327,-0.0005415398467815272,0.020720510089820697
0.8123249299719888,-0.014826301866844735,0.02025714057479351
0.8163265306122449,0.001502095575236519,0.020825972484252258
0.820328131252501,-0.006317429422755595,0.01683160249901235
0.8243297318927572,-0.021797013457926166,0.01768829309356818
0.8283313325330133,-0.020516041909903974,0.01645833842055249
0.8323329331732694,0.009328847190794208,0.01484713423069565
0.8363345338135254,0.014288976452629137,0.014211393448685727
0.8403361344537815,0.020593809792517372,0.014706134963814505
0.8443377350940376,0.005297960163215301,0.014166281167068523
0.8483393357342938,0.0206941547859922,0.01254920273573172
0.8523409363745499,0.010099523638205762,0.014854720158608942
0.856342537014806,0.009635126731427615,0.01730626056636477
0.860344137655062,0.0012013096690092725,0.01728213955322527
0.8643457382953181,-0.0010467470597188026,0.01776431165939739
0.8683473389355743,-0.005918770494106581,0.0204515197254789
0.8723489395758304,0.015433263046774986,0.018878566635096912
0.8763505402160865,0.013524393779284646,0.021345085885354963
0.8803521408563426,0.0058354613417888924,0.02267226416419888
0.8843537414965986,-0.019883477441131975,0.024086303810570416
0.8883553421368547,0.02024385163618461,0.021967637172901622
0.8923569427771109,0.031367338878106214,0.021896831135413204
0.896358543417367,-0.005786950261698037,0.021834840246928756
0.9003601440576231,-0.002971763122734135,0.020845286235389653
0.9043617446978792,-0.020160572194179074,0.019758095033987285
0.9083633453381353,0.005273249944834319,0.01921487857240519
0.9123649459783914,0.003613196242639568,0.02008481540808493
0.9163665466186475,-0.01219826078095732,0.02003039741946251
0.9203681472589036,-0.023736023431854804,0.024084148214033017
0.9243697478991597,0.030080179602923997,0.021766099408724718
0.9283713485394158,-0.013484053691863337,0.020657742927770416
0.932372949179672,0.011259983435484597,0.022294434518102233
0.936374549819928,0.004219499401413684,0.022927615358700512
0.9403761504601841,-0.009689011745274697,0.02332669450547539
0.9443777511004402,-0.014309184484357794,0.024303146189200358
0.9483793517406963,-0.01274263519145535,0.025594213455368865
0.9523809523809524,0.016863282281822572,0.028168614275246556
0.9563825530212086,-0.00017816410996084414,0.02935795935537115
0.9603841536614646,-0.02192160281474621,0.028017018473745946
0.9643857543017207,0.007395607024122321,0.02552525481053767
0.9683873549419768,-0.007868643947405045,0.022154306204482915
0.9723889555822329,-0.027255662789705173,0.023479501335883942
0.976390556222489,0.013800129225112355,0.024998857851641666
0.9803921568627452,-0.0015068900819661375,0.024486134025411416
0.9843937575030013,0.002027758339834596,0.023693855525896368
0.9883953581432573,0.004393827028104373,0.026540786344642877
0.9923969587835134,-0.010352452278053172,0.025793980611535924
0.9963985594237695,0.009161250990936074,0.023326625984626505
1.0004001600640255,-0.003536232055475299,0.022887417693508952
1.0044017607042817,-0.00084167070755288,0.022936566983105203
1.0084033613445378,0.01632701207615588,0.02141997503192217
1.012404961984794,0.0021928391695227403,0.021079162457635775
1.01640656262505,0.0003390454716425782,0.02025576887049341
1.0204081632653061,-0.005524452972379458,0.01964050271855983
1.0244097639055623,-0.018357149204855396,0.01908360264022292
1.0284113645458184,0.0011646459649133046,0.01701126554944763
1.0324129651860745,-0.027415540272662946,0.017114439868506304
1.0364145658263306,0.003866373972325791,0.016244489076817397
1.0404161664665867,-0.012243102129428744,0.015435466178527079
1.0444177671068429,0.022734220846741766,0.014264624474252629
1.048419367747099,-0.0032193719642930234,0.010885452687023059
1.0524209683873549,-0.00999191990251188,0.011594062722029574
1.056422569027611,0.01947819514262077,0.011540844255390495
1.0604241696678671,0.036040430420126224,0.015488607733305668
1.0644257703081232,0.028821535994056034,0.01540658954379125
1.0684273709483794,-0.00259453328995812,0.01570058286910554
1.0724289715886355,-0.009975421220826085,0.017811160107612013
1.0764305722288916,-0.016496807151216857,0.01776188882038858
1.0804321728691477,0.0005816988499623723,0.019184739374299008
1.0844337735094038,-0.0015981019855662816,0.01967474379669909
1.08843537414966,0.013556718847534293,0.024937995423330948
1.092436974789916,-0.007053690099601282,0.029366981623935293
1.0964385754301722,0.007332741134169834,0.028911383338662045
1.1004401760704283,0.012561952162059421,0.027608036724738914
1.1044417767106842,0.009239431535008646,0.029992165678144285
1.1084433773509403,-0.0018018379934310808,0.025819542034968723
1.1124449779911965,0.020275155810413465,0.02546682901218479
1.1164465786314526,0.02730020835694797,0.025671094517435968
1.1204481792717087,0.0009551753732081703,0.023232794599716815
1.1244497799119648,-0.011851649367357178,0.023872417573594033
1.128451380552221,0.0098995529238651,0.024272053883617088
1.132452981192477,0.0016324881895315323,0.022679940908325157
1.1364545818327332,0.0008429010661775682,0.017355889162687998
1.1404561824729893,0.005920314698873655,0.016026939369175913
1.1444577831132454,0.007201069914354125,0.01986863621314421
1.1484593837535015,-0.0011634430859485067,0.018466000992262796
1.1524609843937577,-0.007542682027043919,0.017743685655822853
1.1564625850340136,-0.007728169666790568,0.019192598526699963
1.1604641856742697,-0.010038242241160714,0.019197945531826976
1.1644657863145258,-0.017678125999629313,0.017220965201883
1.168467386954782,-0.00653499155570149,0.01704472696155156
1.172468987595038,0.012055364298204994,0.01702425227675805
1.1764705882352942,0.002873256386490113,0.015251800553625485
1.1804721888755503,-0.009728609215148298,0.014987958452080879
1.1844737895158064,-0.007304711187299619,0.01590949448071078
1.1884753901560625,0.016522912660168768,0.014317669183715716
1.1924769907963186,-0.023157999854544135,0.012821449253506055
1.1964785914365748,-0.009162277774926076,0.0136891026230288
1.2004801920768309,-0.0009103598230439847,0.013720780000990956
1.2044817927170868,0.010267063365583775,0.01262820102230581
1.208483393357343,-0.006181676238345294,0.013887136166079922
1.212484993997599,0.003819883210845452,0.014891938321104038
1.2164865946378551,-0.008996148616524976,0.01654062701369498
1.2204881952781113,0.001220498015555253,0.01902190660732805
1.2244897959183674,0.023630279892868408,0.020265713866054913
1.2284913965586235,-0.029128060251156943,0.019234397328044935
1.2324929971988796,0.009034757989131581,0.01962919163677674
1.2364945978391357,-2.885140968213117e-05,0.01902950118503242
1.2404961984793919,0.016167128645815453,0.016874564416850275
1.244497799119648,0.018509085734877744,0.01725727079048461
1.248499399759904,0.024184404279834513,0.015572464708885585
1.2525010004001602,-0.014663275603346898,0.018800151929672184
1.2565026010404161,-0.007575666823556565,0.02181673858912072
1.2605042016806722,0.012798761576519232,0.022085758371842453
1.2645058023209284,-0.031211331870809378,0.019520955634074768
1.2685074029611845,-0.0007922441294479232,0.018433885242905974
1.2725090036014406,0.00929146683662235,0.019887300401308247
1.2765106042416967,0.0012594881774144614,0.023506380749996895
1.2805122048819528,0.020564133192010985,0.024189985413032203
1.284513805522209,0.006597528140349149,0.024406748938708252
1.288515406162465,0.01529240914351902,0.025802951575804905
1.2925170068027212,-0.00951815272838529,0.02925738053452594
1.2965186074429773,-0.008510269975638345,0.029190787672836678
1.3005202080832334,0.002222286637098998,0.02696112292111195
1.3045218087234896,0.00921426898423292,0.02262760015392191
1.3085234093637454,0.006178635565977666,0.024420401371040193
1.3125250100040016,-0.0023727250767213268,0.025441821129732346
1.3165266106442577,-0.012554562680698383,0.02530580350858992
1.3205282112845138,0.0003402956113195609,0.0239077263922304
1.32452981192477,-0.034019677187652184,0.021470421112164545
1.328531412565026,-0.005716057544593446,0.01953586526951368
1.3325330132052822,0.002493267520318665,0.019790665542411347
1.3365346138455383,0.0006504952869915279,0.01876124549489557
1.3405362144857944,0.0071175094461765065,0.014276883727613994
1.3445378151260505,-0.01098209170814032,0.01610590729946794
1.3485394157663066,0.008157677353638417,0.014714013082741504
1.3525410164065628,-0.0013895289899948766,0.019808175229178635
1.3565426170468189,0.006287041665315632,0.017499320878952757
1.3605442176870748,-0.003031596991785892,0.016861114271440877
1.364545818327331,-0.005699466875080053,0.014584317782385016
1.368547418967587,0.0027221031772598266,0.014211021214056156
1.3725490196078431,0.004064735917710131,0.014595385928756586
1.3765506202480993,0.00967827826881699,0.01551833062553659
1.3805522208883554,-0.02068939516570296,0.014301594840773459
1.3845538215286115,-0.0038498085817966587,0.01431845183288415
1.3885554221688676,0.016416678679495998,0.014420905465493643
1.3925570228091237,-0.01050338776999252,0.01335494795370188
1.3965586234493799,-0.007538936623742805,0.013725315595314657
1.400560224089636,0.00522051248648149,0.009067365426944158
1.404561824729892,-0.006705188040857719,0.00968348503549894
1.408563425370148,0.025673891427697677,0.012512956643061625
1.4125650260104041,0.006347792520598998,0.013010445246558274
1.4165666266506602,0.0195076684132373,0.014456452651670774
1.4205682272909164,-0.015031238310051853,0.014382014879645072
1.4245698279311725,0.027600262475774903,0.014285801588454718
1.4285714285714286,-0.011561521469111706,0.014881513997358362
1.4325730292116847,-0.0002099261523685504,0.014946535155731126
1.4365746298519408,-0.010226206039746666,0.018467379287242715
1.440576230492197,-0.02922349505483983,0.01856819299014702
1.444577831132453,0.016735698873088747,0.021178324177270072
1.4485794317727092,-0.0029656429816073185,0.02288359948408901
1.4525810324129653,-0.007907009757828088,0.025670442182328574
1.4565826330532214,0.0055789216124399665,0.024251070986145817
1.4605842336934773,-0.016434675065279274,0.023685074517576
1.4645858343337335,0.007099149469474653,0.02272246494959974
1.4685874349739896,-0.010416277176601827,0.02563341463544891
1.4725890356142457,0.009826947999124407,0.027063497902238342
1.4765906362545018,0.0026563081969598386,0.026712868946059374
1.480592236894758,0.010834833217244948,0.026899750489857654
1.484593837535014,0.007885543827411214,0.023775011663268696
1.4885954381752702,0.0028997297471236297,0.02534350735230791
1.4925970388155263,-0.014111467791363498,0.023414000551327304
1.4965986394557824,0.004642352267849518,0.022696380750478386
1.5006002400960385,0.011665968072437362,0.01993265598089963
1.5046018407362947,0.0036734165067676752,0.018547908159610535
1.5086034413765508,-0.021195420391278898,0.0202000658856356
1.5126050420168067,0.0019094692607430665,0.01983609628717117
1.5166066426570628,-0.0085629520146083,0.01574278874427645
1.520608243297319,-0.011456574694195934,0.015334724595566843
1.524609843937575,-0.013420359948600503,0.015595450471534327
1.5286114445778312,0.01826359999969133,0.016179963068526173
1.5326130452180873,-0.0036368425270381535,0.015883659772592044
1.5366146458583434,-0.0029693251463825438,0.01662394880514176
1.5406162464985995,0.023557834436678377,0.01581696101690975
1.5446178471388556,0.0019418247168295991,0.015528771626967081
1.5486194477791118,-0.0011202611322624096,0.015782176227907035
1.5526210484193679,0.013619143588537679,0.017455970752058358
1.556622649059624,-0.004973282365266987,0.018611133273435193
1.5606242496998801,0.028149321960731794,0.017950466348433173
1.564625850340136,0.007300546490687687,0.017961288332651888
1.5686274509803921,-0.0044374116238475375,0.019430184723050952
1.5726290516206483,0.009739946287491048,0.019010256583395925
1.5766306522609044,0.006475785200944988,0.017370414362544565
1.5806322529011605,-0.006851419398684246,0.018916960580666636
1.5846338535414166,0.015413874278362194,0.016394441512154447
1.5886354541816727,0.009949439560140605,0.020474700765560957
1.5926370548219289,0.014547825382347024,0.02027839852715202
1.596638655462185,0.012389087531129118,0.019186928792302074
1.600640256102441,-0.017881907134557094,0.018614629775657365
1.6046418567426972,-0.0036682298196294367,0.01678164157408687
1.6086434573829533,-0.007516325963452073,0.017281503641770134
1.6126450580232095,-0.005359707345903155,0.019216613085058037
1.6166466586634654,0.0002355582353922469,0.01710052730691544
1.6206482593037215,0.006613755610774685,0.01906074223083336
1.6246498599439776,-0.00321649584975327,0.020813028484674534
1.6286514605842337,0.00015055038486966977,0.021475882068594892
1.6326530612244898,0.008730220954901082,0.021272948279811785
1.636654661864746,-0.007248712937287983,0.018064547157825447
1.640656262505002,0.0007061479250043149,0.017762749469765863
1.6446578631452582,-0.012811277148891824,0.017109367327505988
1.6486594637855143,0.005460809254335108,0.01662324918566937
1.6526610644257704,0.0023580317211510425,0.016116434391898252
1.6566626650660266,0.005458851844006264,0.015074458923815929
1.6606642657062827,-0.00941114388553191,0.014035160470756203
1.6646658663465388,0.004374792874887841,0.01361520137571828
1.6686674669867947,0.012637335136214298,0.011462840492685764
1.6726690676270508,-0.0071196892573454984,0.01152849036939293
1.676670668267307,-0.003103679203065155,0.00959702756193344
1.680672268907563,-0.013084289778947503,0.00939329364710417
1.6846738695478192,0.002017636670010598,0.009073359388688277
1.6886754701880753,-0.004596157484357331,0.00970335192787721
1.6926770708283314,-0.010783711423696085,0.010346996944978617
1.6966786714685875,-0.01827148468562963,0.011283654874362324
1.7006802721088436,-0.012048772112791472,0.011890595820306367
1.7046818727490998,-0.018083228365365633,0.01234980309272176
1.708683473389356,-0.021061445602084332,0.013026854515700667
1.712685074029612,-0.004558652770633581,0.012213429700063538
1.716686674669868,-0.014298322093897415,0.012818320576619286
1.720688275310124,0.014075457136288074,0.012503037030377301
1.7246898759503801,0.004716974051029353,0.014495078585204678
1.7286914765906363,-0.028185085206233324,0.016001974740737137
1.7326930772308924,0.0033463519319500835,0.017965047083738
1.7366946778711485,0.0038943025532911157,0.019776652199339932
1.7406962785114046,-0.006008110890879956,0.01980524214797738
1.7446978791516607,0.008489980894476355,0.02006352322452767
1.7486994797919169,0.010020744737507654,0.021145135098538506
1.752701080432173,0.004827295348018172,0.021396000120806023
1.756702681072429,0.002798199501586331,0.023744152032345076
1.7607042817126852,0.0026124695026291,0.02395076533938827
1.7647058823529413,0.017753844338063582,0.02384162790977789
1.7687074829931972,-0.016465173299415263,0.023099028913991432
1.7727090836334534,0.007804554556428119,0.021578019180727912
1.7767106842737095,-0.017998086827470828,0.021262663848562992
1.7807122849139656,-0.005155130260881958,0.01920138538122647
1.7847138855542217,0.0044376106492824245,0.016361476950687556
1.7887154861944778,-0.01655869421413916,0.01605884825917422
1.792717086834734,0.006015706716529587,0.016596176984808305
1.79671868747499,0.0078070422333283975,0.01696777440187837
1.8007202881152462,0.0007052961039355173,0.01744788871775623
1.8047218887555023,-0.018262458620231455,0.0158638251608979
1.8087234893957584,0.012993731871657496,0.016145087582542083
1.8127250900360146,0.011494304324938844,0.016229571207944455
1.8167266906762707,-0.004021655355114589,0.01787017169933301
1.8207282913165266,0.012211410490084161,0.017485425632902674
1.8247298919567827,-0.003084030599568819,0.017141198085963334
1.8287314925970388,-0.01837371478128937,0.016500233147992854
1.832733093237295,0.025290190607675178,0.018904903139374128
1.836734693877551,0.00386269054334869,0.02051917446656367
1.8407362945178072,-0.003293808041894928,0.019545825021632088
1.8447378951580633,0.0026059982943418747,0.017610875926541144
1.8487394957983194,-0.028070380776837052,0.018296135668938143
1.8527410964385755,-0.013380488132583633,0.015977021433599914
1.8567426970788317,0.004924799173192401,0.018032492263523877
1.8607442977190878,-0.015887339680604226,0.021275038374793307
1.864745898359344,-0.022768793338236174,0.019300828113352014
1.8687474989996,-0.007098839609278443,0.018877576794794963
1.872749099639856,0.008614548213511014,0.01806882196289636
1.876750700280112,-0.006128389388053999,0.022324053165353033
1.8807523009203682,0.03647319730754395,0.021564913794990218
1.8847539015606243,-0.017246839349592945,0.02031020639687892
1.8887555022008804,0.02741981284387715,0.02099331705932952
1.8927571028411365,0.0002234210834408416,0.0239084699797784
1.8967587034813926,-0.0030285610358950967,0.023113472580836705
1.9007603041216488,-0.014836045431090811,0.023973460094045
1.9047619047619049,-0.00348110767312913,0.022069329654824058
1.908763505402161,-0.005308095382847991,0.02380827106923475
1.9127651060424171,0.02747199353320161,0.025889486906840092
1.9167667066826732,0.004250289462183045,0.029641045860563188
1.9207683073229291,0.0029263903248763264,0.029270558540268946
1.9247699079631853,0.0014904516811257474,0.0253765916842675
1.9287715086034414,0.009093948021734022,0.02560292874507348
1.9327731092436975,-0.00435840839586817,0.025378436798813426
1.9367747098839536,-0.006144800242942982,0.023733379567223618
1.9407763105242097,-0.015550705111793949,0.024464720414885437
1.9447779111644659,0.017394214090981,0.024021774975009416
1.948779511804722,-0.02654371789303707,0.02313727462642519
1.952781112444978,0.02329863875532604,0.022416082001535755
1.9567827130852342,-0.02674753230053998,0.018158648222199127
1.9607843137254903,-0.006282895333126477,0.016154515795767897
1.9647859143657465,0.011253383953316827,0.012846282017788686
1.9687875150060026,0.015450108965205666,0.015229652580166286
1.9727891156462585,-0.0028025738054872507,0.01746349091300368
1.9767907162865146,-0.011394474233340427,0.01928401709677793
1.9807923169267707,0.029753690294786545,0.022365614600480373
1.9847939175670268,-0.009033416332365315,0.025699416122593164
1.988795518207283,0.015147491456135137,0.022404541910047263
1.992797118847539,-0.005389129652556137,0.023493513004002417
1.9967987194877952,-0.001351436646450781,0.025440933191665484
2.000800320128051,-0.01052789860801888,0.02564496628974487
2.0048019207683074,-0.0006001356365691452,0.026002694797977514
2.0088035214085633,-0.012685576970869649,0.029951624509803716
2.0128051220488197,-0.0005555230198182996,0.030400800145931026
2.0168067226890756,-0.011010773471971224,0.0303381010039651
2.020808323329332,0.00818764069901745,0.02847132768675701
2.024809923969588,-0.005541703705467144,0.024553964283613856
2.028811524609844,-0.0059773879270950845,0.022568132607854393
2.0328131252501,0.006893832100810727,0.01850225013471447
2.0368147258903564,0.011382954439925484,0.019497857895844496
2.0408163265306123,0.00014649366407834178,0.017834355948458103
2.0448179271708686,0.003239061673401774,0.017144045681386614
2.0488195278111245,0.014747654974232,0.017981415817330596
2.0528211284513804,-0.0231140413143606,0.017071318440738614
2.0568227290916368,-0.01881238238374363,0.013374137711229186
2.0608243297318927,0.027031650937790388,0.013041435448794346
2.064825930372149,-0.025814106179824745,0.012456055371748893
2.068827531012405,0.006262308606526367,0.011640833036135794
2.0728291316526612,0.010379301738346027,0.01193435600561427
2.076830732292917,0.0010153913249721885,0.012590522035096953
2.0808323329331735,-0.011054231188299556,0.016091401899874905
2.0848339335734294,0.013157290901937945,0.017044111305888864
2.0888355342136857,0.008136858888715324,0.02116111101495074
2.0928371348539416,-0.0018364448607078787,0.02346300790259983
2.096838735494198,-0.00011682907949898564,0.023163621538808587
2.100840336134454,-0.008603600284410387,0.023915861056445963
2.1048419367747098,-0.016289833536404952,0.02314427774069083
2.108843537414966,0.004030338485880095,0.023791213798933168
2.112845138055222,-0.014039692854140069,0.024067120559941244
2.1168467386954783,0.009881974373992958,0.02530961082917727
2.1208483393357342,0.003731481602382347,0.025091505937567864
2.1248499399759906,-0.007747727689728991,0.022816433610580694
2.1288515406162465,-0.005115437289616619,0.020560080956455878
2.132853141256503,0.0027360703979905283,0.020167828248553746
2.1368547418967587,-0.015033381202886545,0.016591157333307276
2.140856342537015,0.001391042668512461,0.014760253041471123
2.144857943177271,-0.004237842508399196,0.015323105848261106
2.1488595438175273,0.010049121645543039,0.014289379404180892
2.152861144457783,-0.010827069534613537,0.015336247999954521
2.156862745098039,0.013517507584082497,0.014412774113259053
2.1608643457382954,0.015814823538359633,0.012792289353714676
2.1648659463785513,-0.015064659423354554,0.013864688627843744
2.1688675470188077,0.009031730445743628,0.013795429229287986
2.1728691476590636,0.00027502252012629846,0.01443624087441928
2.17687074829932,-0.007821099114981231,0.014661017361436709
2.180872348939576,0.021173796029055083,0.01381156543720792
2.184873949579832,0.027027440982435928,0.015286806550188303
2.188875550220088,-0.012490418571779216,0.015562836811604206
2.1928771508603444,-0.016244292217441388,0.016368736862642154
2.1968787515006003,0.010598354707856566,0.01719291791410405
2.2008803521408566,-0.00821744308815365,0.01603092303688955
2.2048819527811125,-0.00490029867256764,0.016451649548800854
2.2088835534213684,-0.00813664924879751,0.019318689294719617
2.212885154061625,0.01218781805530074,0.021183748293371628
2.2168867547018807,-0.001592385320266781,0.022909685239517703
2.220888355342137,-0.01383351289113991,0.024776670854337882
2.224889955982393,-0.008129896709050082,0.024862075803458745
2.2288915566226493,-0.005158356007415801,0.024456282654471025
2.232893157262905,0.0022996573826464866,0.023116319095919474
2.2368947579031615,0.004165602011743554,0.02192237406686574
2.2408963585434174,-0.019031079382878235,0.021475029382930482
2.2448979591836737,0.013640818445488263,0.020318221944467817
2.2488995598239296,-0.0014831171942283864,0.02242654764397051
2.252901160464186,-0.005843155473626233,0.022474565224520026
2.256902761104442,0.0058459576425953655,0.019984187397601102
2.2609043617446978,-0.004951150957330584,0.016139052708665978
2.264905962384954,-0.0010599784727458137,0.01484455573909984
2.26890756302521,-0.010412112159907097,0.015277897124398587
2.2729091636654664,0.021587040228892667,0.01575099584795319
2.2769107643057223,0.00018506917911393077,0.014703817883263037
2.2809123649459786,-0.006640035958582312,0.014850430756099715
2.2849139655862345,-0.021679936480986012,0.014494231514824594
2.288915566226491,0.01106206335313699,0.0133689402173499
2.2929171668667467,-0.011059104002837708,0.013286151720363586
2.296918767507003,0.011874086406015182,0.012754128840782768
2.300920368147259,0.00033611223251499517,0.014846695251084329
2.3049219687875153,-0.008999078993020744,0.01407335632144041
2.308923569427771,0.01745430424674702,0.014748278930581315
2.312925170068027,0.0053931936148020766,0.017471732682492573
2.3169267707082835,-0.025547726852272922,0.016232562182274392
2.3209283713485394,0.010554241885159193,0.015831109309626116
2.3249299719887957,-0.0185765862414398,0.017446890036866
2.3289315726290516,0.0033043439419478972,0.01659055275477967
2.332933173269308,-0.013374591714247699,0.01708085857754034
2.336934773909564,0.04083634941182381,0.01902508088279449
2.34093637454982,0.0031551655289260667,0.019698889588297776
2.344937975190076,0.008576078735416128,0.02205245584534264
2.3489395758303324,0.026649599624924667,0.020336871613690084
2.3529411764705883,-0.02412874559363292,0.023196725993809033
2.356942777110844,-0.013063052397360378,0.022678030695744623
2.3609443777511006,-0.00981580406661174,0.021386561561955245
2.3649459783913565,-0.02307081847371988,0.026016420105504975
2.368947579031613,-0.007502889811782131,0.0247873690713676
2.3729491796718687,-0.012018591796396904,0.024274533634765727
2.376950780312125,0.01636741134648205,0.028366242976652436
2.380952380952381,0.0011561873376101305,0.030718884314007572
2.3849539815926373,-0.01463016140045848,0.03003605098421125
2.388955582232893,0.00024716628867024537,0.030723760531460975
2.3929571828731495,-0.03974521889412619,0.03033860485063524
2.3969587835134054,0.00580954940166692,0.029864124003690422
2.4009603841536618,-0.013261031105085091,0.028844365325007518
2.4049619847939177,-0.002772093717014842,0.030875653467690053
2.4089635854341735,0.001851268510268548,0.028975709207726297
2.41296518607443,-0.009319863701776513,0.024900684764851657
2.416966786714686,-0.00039184084449020467,0.024448495076722886
2.420968387354942,-0.0005938463216768275,0.029295251421256618
2.424969987995198,0.024520407507118307,0.0260546536657311
2.4289715886354544,-0.016495585149049946,0.0243647397354865
2.4329731892757103,0.0003502999896882693,0.022764510501656926
2.4369747899159666,0.006427366499537632,0.021526036708590685
2.4409763905562225,-0.0015583474974689591,0.0193877830723033
2.444977991196479,0.003708916143840715,0.01828202521299062
2.4489795918367347,0.01260000984871866,0.016505493767710787
2.452981192476991,0.01381116652533927,0.01777327291295874
2.456982793117247,0.0057882025866102405,0.020158527151136595
2.460984393757503,-0.0009988417806983051,0.01793802929526705
2.4649859943977592,-0.0005296364949553393,0.018899041515366418
2.468987595038015,-0.018314585936529317,0.012961038083856229
2.4729891956782715,-0.028955669683298033,0.012634392641663541
2.4769907963185274,-0.008376740544372397,0.01253160478958125
2.4809923969587837,-0.015682046669577298,0.01424816469142907
2.4849939975990396,0.001330340161285664,0.014860352262705013
2.488995598239296,-0.0013559995837712185,0.013566445354024374
2.492997198879552,-0.011719821477121866,0.013587872378951607
2.496998799519808,-0.010344958285366506,0.01634342183334089
2.501000400160064,0.004675875585753753,0.01703309870548465
2.5050020008003204,-0.014716668623338414,0.015770630077937085
2.5090036014405763,-0.010879110497262395,0.01815469457619277
2.5130052020808322,-0.016043479182553853,0.017362114331200832
2.5170068027210886,-0.01944101556111802,0.017330649522434093
2.5210084033613445,0.012337721271029231,0.018576333748942648
2.525010004001601,0.013707067244996107,0.018225676482932905
2.5290116046418567,-0.004396269214516315,0.016805151916161217
2.533013205282113,-0.007502418814963382,0.018193515508808274
2.537014805922369,-0.00015760071865181374,0.0197298830455407
2.5410164065626253,-0.012860580032819672,0.022142263210387966
2.545018007202881,0.010105190816963676,0.022317421392546558
2.5490196078431375,0.010432335501344939,0.019733354379783907
2.5530212084833934,-0.013142410813273588,0.020562212494673746
2.5570228091236498,0.003513550755810635,0.0188072903760401
2.5610244097639057,-0.006777936916232287,0.01976703970570886
2.5650260104041616,0.00487576204882833,0.019580690410437192
2.569027611044418,0.014963384355967243,0.019758076720718984
2.573029211684674,-0.012788124974757356,0.01972079322515969
2.57703081232493,0.006480322795746655,0.02061591444043483
2.581032412965186,0.005983277546168449,0.02037111962126394
2.5850340136054424,0.0002987615207216438,0.019225785703608608
2.5890356142456983,-0.01590929529168482,0.017785007243369618
2.5930372148859546,-0.007218430849911431,0.015520131327288076
2.5970388155262105,0.00020825157876960262,0.015928418150432125
2.601040416166467,0.002648687188832541,0.01578552395264992
2.6050420168067228,0.021925794266850537,0.016109591279042105
2.609043617446979,-0.007242194943592112,0.015873367002553127
2.613045218087235,-0.014330487604240036,0.01589531730370188
2.617046818727491,0.006129883032736374,0.01636938812979274
2.6210484193677472,-0.0009098682959572934,0.015920501118017193
2.625050020008003,0.008544990972930105,0.014330670812578375
2.6290516206482595,0.02159382943390527,0.012698911922356617
2.6330532212885154,-0.0005865936605432832,0.015561989235360235
2.6370548219287717,-0.0024537336886594893,0.015634180689091375
2.6410564225690276,-0.002446039921882119,0.017104376877955813
2.645058023209284,0.001760572872235307,0.015730780161305535
2.64905962384954,0.00352199378454838,0.013883728377816203
2.653061224489796,0.018893511821245882,0.014204781301835489
2.657062825130052,0.012415839099398746,0.01663219960783642
2.6610644257703084,0.004640514657513962,0.01667695709048553
2.6650660264105643,0.02013541175433599,0.014584636665967713
2.6690676270508202,-0.003828062858072361,0.013842536759096923
2.6730692276910766,-0.015624776005861088,0.014083920481572093
2.6770708283313325,-0.008154896433633778,0.014219718397778837
2.681072428971589,-0.01050202234180075,0.013748202850451635
2.6850740296118447,0.007337521646413963,0.014552697055579988
2.689075630252101,0.01780094000632588,0.013045920236624951
2.693077230892357,0.002409661550923743,0.01522375975495357
2.6970788315326133,0.004438581833813808,0.015677534800928417
2.701080432172869,-0.00872140909814663,0.016778431163534824
2.7050820328131255,-0.00981486694803519,0.01468869646276452
2.7090836334533814,0.0009106780181948588,0.016230531323301312
2.7130852340936378,0.01809043476897556,0.016989953307644672
2.7170868347338937,-0.004639791526482868,0.019377618126918256
2.7210884353741496,0.012140131357792412,0.019478550480380018
2.725090036014406,-0.009414756184041008,0.01962107860019598
2.729091636654662,-0.018254228978306395,0.01803933129631172
2.733093237294918,0.0075897924491624535,0.01763488387773081
2.737094837935174,0.01870542111765349,0.017054899659249164
2.7410964385754304,-0.01096540031539998,0.01673690868716098
2.7450980392156863,-0.0197815324812805,0.016863131324475505
2.7490996398559426,0.0038407361308959546,0.016321274107033053
2.7531012404961985,-0.032901178288341194,0.016517180481332015
2.757102841136455,0.01688751177337761,0.01772263743357074
2.7611044417767108,-0.0021773037751439384,0.017761865179589276
2.765106042416967,-0.018694930249019165,0.017902510688015752
2.769107643057223,-0.012339701637733753,0.019232915727351124
2.773109243697479,-0.008219947788757368,0.021618722426407493
2.7771108443377353,-0.027811453602387605,0.02085978481859523
2.781112444977991,-0.02075716861451139,0.024449672938407257
2.7851140456182475,-0.010516114826896336,0.026934047546567686
2.7891156462585034,-0.014983935785363162,0.0244595786259293
2.7931172468987597,-0.004270092340074932,0.026645132427859198
2.7971188475390156,-0.023915088656230887,0.026676165318582547
2.801120448179272,0.003193191285560762,0.026490374336192397
2.805122048819528,-0.0008592404620811032,0.02797650898241732
2.809123649459784,0.009286137692004792,0.030024016986979117
2.81312525010004,-0.012111209391873271,0.028750591668861517
2.817126850740296,0.004169802040315431,0.029375468139165275
2.8211284513805523,-0.017694464930064064,0.026963461566817316
2.8251300520208082,0.010022791301255647,0.030084994434556218
2.8291316526610646,0.015837295865227353,0.025465445298587665
2.8331332533013205,-0.0063309104315314065,0.02297307222463151
2.837134853941577,-0.00396945456718952,0.024078485646796564
2.8411364545818327,-0.0012510822522188154,0.023054726548132624
2.845138055222089,0.0035583801321443704,0.021784318942842117
2.849139655862345,0.04746302628399169,0.023257592694771064
2.8531412565026013,0.0053818053301955505,0.020491481360619086
2.857142857142857,0.012568611303864921,0.019726448243232064
2.8611444577831135,-0.010998291853411325,0.019075654995387627
2.8651460584233694,0.0028539111668431792,0.01736291905034383
2.8691476590636253,-0.0009380066839421967,0.016893467335505973
2.8731492597038817,0.03222183368916477,0.01372802851715701
2.8771508603441376,0.03521516582669067,0.02061192401628093
2.881152460984394,-0.005687449244982622,0.021315176331118166
2.88515406162465,0.022320455357285433,0.021825596243988356
2.889155662264906,-0.012142311571130663,0.021652539171736207
2.893157262905162,0.02051483559730437,0.02144792003860515
2.8971588635454184,-0.023904687528466754,0.018842314946428396
2.9011604641856743,-0.013827489700422212,0.0222942340237054
2.9051620648259306,0.008205714234624273,0.025307464857184995
2.9091636654661865,0.002180798643226114,0.025207407570635332
2.913165266106443,-0.024557859348772228,0.028060961728852505
2.917166866746699,0.004651138074386187,0.029754532181307115
2.9211684673869547,0.001433049237202964,0.03239123655262107
2.925170068027211,0.033364967472233144,0.028727948850470322
2.929171668667467,-0.0060593599292595,0.030041240590213313
2.9331732693077233,-0.009943885599786963,0.02936281638783824
2.937174869947979,0.004455463853309346,0.02799170890968069
2.9411764705882355,-0.00944222293803089,0.03136664155192107
2.9451780712284914,-0.0012807662764353148,0.031944028128293875
2.9491796718687477,-0.009281555934107295,0.027156416547634753
2.9531812725090036,-0.0005163733350337427,0.02686871337175465
2.95718287314926,-0.02823130752350922,0.02692654494681384
2.961184473789516,0.028800776368326043,0.025002006198222237
2.9651860744297722,0.017050832873048746,0.023806712463582465
2.969187675070028,-0.008429726422274466,0.0220849371632811
2.973189275710284,-0.019980691102095577,0.018566950035366278
2.9771908763505404,0.010081374665091508,0.017860063890560003
2.9811924769907963,0.011527600188058866,0.016664382469750622
2.9851940776310526,0.0005050344040949604,0.020715199032252486
2.9891956782713085,0.003710567638741087,0.021374966509928824
2.993197278911565,-0.004214148649042645,0.023303101169071982
2.9971988795518207,0.003146733196237848,0.02439107438118908
3.001200480192077,-0.020623027644938216,0.022309838707582297
3.005202080832333,0.02580864304455638,0.02293525619871108
3.0092036814725893,-0.006996898605751561,0.023181521533255207
3.013205282112845,0.02366596790949575,0.022567235450959726
3.0172068827531016,0.00109014167712748,0.021675971317747813
3.0212084833933575,0.017952317511732287,0.022132108046351316
3.0252100840336134,0.024408512321891875,0.021178151957862632
3.0292116846738697,0.018539634882154637,0.024304707706518523
3.0332132853141256,-0.029352553134094475,0.023927986873853526
3.037214885954382,-0.011250149729866224,0.02053751532593485
3.041216486594638,0.01959920657129687,0.021566159284176586
3.045218087234894,0.0022281772380656106,0.020424864440987157
3.04921968787515,0.02357552858406315,0.020109455272876674
3.0532212885154064,0.003573947199059832,0.02233730451682512
3.0572228891556623,0.014258562591949216,0.023427665799447866
3.0612244897959187,-0.020338446774580726,0.027913413359911446
3.0652260904361746,-0.010981377742432073,0.029085807501977055
3.069227691076431,-0.004885647820383729,0.03147816182153846
3.073229291716687,-0.011455526414655783,0.03133532769472549
3.0772308923569427,-0.009891545531681388,0.031794437332850894
3.081232492997199,-0.0213604003798896,0.028336974194336194
3.085234093637455,0.0025674162830491977,0.02946615247188135
3.0892356942777113,0.005587466140138831,0.02894872773414078
3.093237294917967,0.015162727324305403,0.030486800677785947
3.0972388955582235,-0.005328087419899239,0.028454952384698758
3.1012404961984794,0.002722684732995506,0.02644078175609356
3.1052420968387358,-0.012922335505649057,0.02509601633381777
3.1092436974789917,-0.015022753361409234,0.0238532481063118
3.113245298119248,0.002793896653320713,0.022503095577016064
3.117246898759504,0.003739304694808331,0.020324290146809244
3.1212484993997602,0.003578658891477646,0.022335594031836485
3.125250100040016,-0.003653832898265087,0.019498143246104646
3.129251700680272,-0.015320453785705795,0.01936577316026807
3.1332533013205284,-0.025520123869580087,0.019157991775369868
3.1372549019607843,0.006670809992188875,0.018331409115575653
3.1412565026010406,0.014856873544464418,0.017058267613681788
3.1452581032412965,0.0005278464295787263,0.016880012910837745
3.149259703881553,0.0010152103422949065,0.015655171370499425
3.1532613045218087,-0.009511983719888012,0.014685216051634451
3.157262905162065,0.016826946370315347,0.013746013066664564
3.161264505802321,0.0005158150844659788,0.017315125995439374
3.1652661064425773,0.01905935609293039,0.017483584402103756
3.1692677070828332,0.0059124159482251935,0.017436024580421296
3.1732693077230896,0.01264758653982839,0.01668959402902781
3.1772709083633455,-0.02518537041636074,0.016424084223684514
3.1812725090036014,0.01564527525174327,0.015893779439190476
3.1852741096438577,0.004424749832051371,0.016174328850183304
3.1892757102841136,0.009383123189271057,0.01582009045153031
3.19327731092437,-0.025565134266018755,0.01820233635033743
3.197278911564626,-0.006380938642085653,0.018565232207066112
3.201280512204882,0.0017467638551706655,0.019963747928111408
3.205282112845138,-0.0038853805731725514,0.021497728237624764
3.2092837134853944,-0.008207614432279825,0.019962203518427903
3.2132853141256503,0.009251047049319176,0.01961294440265121
3.2172869147659067,0.0045782043793954575,0.018761784116312234
3.2212885154061626,-0.0033938319155693898,0.02265504626769926
3.225290116046419,0.0018116439592936024,0.023489409280205643
3.229291716686675,0.00656010304883017,0.022281928789746844
3.2332933173269307,0.018519890846163956,0.020269533971791796
3.237294917967187,-0.017434516334020825,0.021465597677754487
3.241296518607443,-0.0006520174061726692,0.01994041976639058
3.2452981192476993,0.018114733242091514,0.01973295179155237
3.249299719887955,-0.021531423531588725,0.018294006292654725
3.2533013205282115,-0.009052877122523855,0.014659425536678084
3.2573029211684674,0.0014269653162120263,0.013246694361180913
3.2613045218087238,0.00313085881566306,0.01543846846176217
3.2653061224489797,0.0011915589883544277,0.01669044848456516
3.269307723089236,-0.0003692542815231472,0.012816494740967035
3.273309323729492,0.005146794298108589,0.014641082879537868
3.2773109243697482,-0.015088978926961623,0.01771756892704674
3.281312525010004,0.0005175294129740325,0.018521107188236977
3.28531412565026,0.013634116872707214,0.017466726029308054
3.2893157262905164,-0.0029881927859460584,0.016515045585119598
3.2933173269307723,0.01252923299921102,0.015988427110816664
3.2973189275710286,0.006398819278107823,0.015518109650575403
3.3013205282112845,-8.41343707961896e-06,0.01603672071852006
3.305322128851541,0.012214069725196572,0.017362948617768763
3.3093237294917968,0.01336000640572319,0.014563607376765028
3.313325330132053,-0.007132934349705902,0.01397265074122444
3.317326930772309,-0.0035871690438510216,0.014335922643696094
3.3213285314125653,-0.0033984237491225663,0.01346738541098033
3.3253301320528212,-0.011505134779159914,0.011114287272840605
3.3293317326930776,-0.011047033716319914,0.009707886213102613
3.3333333333333335,-0.0019952270260528127,0.011385265392225834
3.3373349339735894,-0.006913697777335672,0.012975883090656042
3.3413365346138457,0.003892180490894172,0.013899758391073647
3.3453381352541016,0.0034889510486209273,0.01440013949594423
3.349339735894358,-0.012864372763223428,0.014128270396965384
3.353341336534614,-0.019428906526128994,0.013570987800373632
3.35734293717487,0.012209672709337224,0.01520831053456448
3.361344537815126,-0.01800250137086056,0.013398479948274224
3.3653461384553824,-0.005112571549537104,0.014008890313322416
3.3693477390956383,0.00012604679340939455,0.012665841104085319
3.3733493397358947,-0.011777119420977821,0.01221336079082645
3.3773509403761506,0.007476926867531099,0.014212443925997348
3.3813525410164065,-0.001983076985890928,0.015334340643764934
3.385354141656663,-0.005923714442902976,0.015155465412914794
3.3893557422969187,0.009019282759790517,0.016845667409308148
3.393357342937175,0.014506677842701834,0.017082865299104143
3.397358943577431,-1.50482253177685e-05,0.01657401540170405
3.4013605442176873,0.004416732640805685,0.016616308621267832
3.405362144857943,0.00901078845016873,0.016061162154861534
3.4093637454981995,0.009024129812756304,0.016059272841138374
3.4133653461384554,0.03155984075503472,0.015905331860324903
3.417366946778712,0.00801389577517293,0.01670258886915845
3.4213685474189677,-0.0011609373137442982,0.01841582949657526
3.425370148059224,0.0011977544319241584,0.01641777806140713
3.42937174869948,-0.0011964230645556907,0.014083406671838912
3.433373349339736,0.0025101836540057255,0.013585984782765037
3.437374949979992,0.02467484601538535,0.012189860953514563
3.441376550620248,0.01238351553687291,0.01630237317440485
3.4453781512605044,-0.013089440425706773,0.017528922315716434
3.4493797519007603,0.0028794489589401276,0.01587812130802226
3.4533813525410166,0.009861511347210543,0.014901719049707322
3.4573829531812725,0.010727441058402615,0.014779395499401795
3.461384553821529,-0.008441288502668952,0.014248596384504632
3.4653861544617848,0.014260737771422817,0.016683013893294962
3.469387755102041,0.014569938441798297,0.016352865216627807
3.473389355742297,-0.00018768215504402116,0.01838591434873387
3.4773909563825534,-0.007475322274779143,0.018146868953176243
3.4813925570228093,-0.02863431675581665,0.01827915513680795
3.485394157663065,0.010582526208411895,0.01854401757909913
3.4893957583033215,-0.005516016288326662,0.014949116043957586
3.4933973589435774,0.004725013285932163,0.015920490965577398
3.4973989595838337,-0.01513897149585719,0.018005571303383722
3.5014005602240896,0.006212110425139866,0.017848506520990664
3.505402160864346,0.01919587343651639,0.018824866293152498
3.509403761504602,-0.018271274628293067,0.02288713131592578
3.513405362144858,0.014149920606521094,0.020695795908986094
3.517406962785114,-0.009215356439895144,0.019627909679706495
3.5214085634253705,0.02621218879239914,0.018327253322114805
3.5254101640656264,0.015134583197595326,0.020233591396704033
3.5294117647058827,0.003037879290390608,0.01966611481625526
3.5334133653461386,0.011697272773307496,0.020982943838418974
3.5374149659863945,0.020059559392138607,0.022511492504774584
3.541416566626651,-0.00022154707574619209,0.022494260595445806
3.5454181672669067,-0.001988482455104479,0.02166163081618646
3.549419767907163,-0.012499583496781706,0.0257084040674118
3.553421368547419,-0.003991273635943547,0.026899408095212195
3.5574229691876753,-0.0070572355084331535,0.022919198982887773
3.561424569827931,0.013551515266625975,0.02309254046611265
3.5654261704681876,-0.0005484070316643037,0.02535404044498527
3.5694277711084434,-0.002390100509073737,0.024653757943913043
3.5734293717487,-0.009312185954047633,0.02260887586287243
3.5774309723889557,-0.00428375338146747,0.023586568858120147
3.581432573029212,-0.0021880314933557443,0.021222275516235012
3.585434173669468,-0.009381682640944824,0.01947850860526868
3.589435774309724,0.01651224249403141,0.019385457437897
3.59343737494998,0.019433802222497,0.01803775930383868
3.597438975590236,-0.006047326276534865,0.014333458930477706
3.6014405762304924,-0.0032389109042677542,0.013428084555795933
3.6054421768707483,0.005627695132573405,0.013621816180238245
3.6094437775110046,-0.017359417919682013,0.012143142874826932
3.6134453781512605,0.0007626155919194787,0.010482748438969012
3.617446978791517,-0.0004885672150335168,0.013015928083110606
3.621448579431773,-0.008806863788357292,0.0157286501484128
3.625450180072029,-0.02409190115042164,0.014725333455698196
3.629451780712285,0.00815185313006806,0.014608342135932149
3.6334533813525414,0.004147116811164856,0.0143860506690779
3.6374549819927973,-0.014366031694316349,0.01497817404011381
3.641456582633053,0.003679018553732448,0.015011483162315566
3.6454581832733095,0.02393687448885119,0.014715797477362331
3.6494597839135654,0.011155653489668873,0.014637220609340876
3.6534613845538217,-0.01882340903985057,0.017717359021366088
3.6574629851940776,-0.0057035769947757775,0.018644724685231717
3.661464585834334,-0.00844654571017497,0.017830757247657866
3.66546618647459,-0.006424787976385709,0.017497024563430483
3.6694677871148462,-0.021575956491816744,0.015047178423481616
3.673469387755102,0.00819363145973105,0.017828977371331534
3.6774709883953585,-0.013812601595512708,0.019060019426340256
3.6814725890356144,-0.01253918458054839,0.021111933908905006
3.6854741896758707,0.0012781790974042823,0.019299467454392344
3.6894757903161266,-0.006376678079675887,0.020494307506507214
3.6934773909563825,0.003728694806455441,0.021417381274058563
3.697478991596639,-0.019333304299901866,0.023402956774675545
3.7014805922368947,0.007457731636347093,0.020930798765243567
3.705482192877151,-0.016141236877841768,0.021811036988049867
3.709483793517407,-0.017741997207450337,0.023115991423684194
3.7134853941576633,-0.01726384473575907,0.021080849219330514
3.717486994797919,0.016221372358397605,0.021500331385222234
3.7214885954381756,-0.016141936394855783,0.018357988587557366
3.7254901960784315,0.0029896917893302514,0.019629601495262244
3.729491796718688,-0.0009044394114988832,0.0178622550498724
3.7334933973589437,-0.010387410035793665,0.01948529610916189
3.7374949979992,0.008158786527854985,0.020930725411681013
3.741496598639456,-0.0024176279816713743,0.022616183106367326
3.745498199279712,0.010335076739951326,0.02178355299566032
3.749499799919968,0.016839257247673524,0.023019502950533857
3.753501400560224,0.017697722221777235,0.02133655608378262
3.7575030012004804,0.004865643378051648,0.01952736998888273
3.7615046018407363,0.01188678344795828,0.020943842263050492
3.7655062024809927,0.0018197094542735865,0.02122095755669922
3.7695078031212486,-0.011705823229012412,0.02101708855618224
3.773509403761505,0.028105814002314787,0.019617877147279725
3.777511004401761,0.002098070887959996,0.02107669085040319
3.781512605042017,0.0062025889596676,0.021318722076721284
3.785514205682273,-0.0014793446007108665,0.0193164676257059
3.7895158063225294,-0.008498525750196103,0.01848034234990767
3.7935174069627853,0.026725628132024382,0.01624090453747595
3.797519007603041,0.0011266220406624537,0.015551095337666736
3.8015206082432975,0.0035762023491970156,0.019456616120916523
3.8055222088835534,-0.012825594832549872,0.019642224094127046
3.8095238095238098,0.004487583198831466,0.018991490451871453
3.8135254101640657,-0.001400165253653219,0.01795284686486561
3.817527010804322,-0.016364974832459477,0.01889841769838834
3.821528611444578,0.01033309239106169,0.02144712480244803
3.8255302120848342,-0.012778523421018977,0.019003832687518003
3.82953181272509,-0.016711777377046943,0.016807956712486936
3.8335334133653465,0.026821561147335384,0.018045717684327185
3.8375350140056024,-0.0019519261082054469,0.016895152716242576
3.8415366146458583,0.0077441409335726715,0.01682991419808599
3.8455382152861146,-0.00044595539772680017,0.01755440555329077
3.8495398159263705,-0.008852326642163389,0.014790772973426309
3.853541416566627,0.0036690305192734426,0.01645156793964964
3.8575430172068828,0.010462364373780288,0.018085731582870964
3.861544617847139,0.017845966907891107,0.022026409708942936
3.865546218487395,0.011398257179894102,0.02100842290570179
3.8695478191276513,0.00916372098567797,0.018056829020232572
3.8735494197679072,0.025422760810945463,0.01795098633887009
3.8775510204081636,3.764188534845634e-05,0.018771416057536468
3.8815526210484195,0.019396444383043727,0.017347583511834946
3.885554221688676,0.011646720967538354,0.018276653368091204
3.8895558223289317,-0.011565664818637855,0.020833951808239118
3.8935574229691876,0.00101266975178103,0.020061634375948576
3.897559023609444,0.001973741999144462,0.019879798808804253
3.9015606242497,-0.024576067625095573,0.021845959488225226
3.905562224889956,0.021170226284598578,0.019253155465640683
3.909563825530212,0.007571222745408136,0.018098560516823084
3.9135654261704684,0.0009394564806372834,0.01960608713623463
3.9175670268107243,-0.0007638744726577433,0.020200328589204293
3.9215686274509807,0.009905855309988436,0.020288451853980434
3.9255702280912366,-0.027375136272176814,0.019218841861846983
3.929571828731493,0.0024744876708345837,0.022469855981007054
3.933573429371749,0.004628016147300599,0.0241349130659439
3.937575030012005,0.0022046576319961868,0.02253720516625841
3.941576630652261,-0.018838788914855603,0.020910876740539184
3.945578231292517,0.001451181702379788,0.01960471272148736
3.9495798319327733,5.310715469932626e-05,0.01719185629357984
3.953581432573029,-0.012291158590056394,0.02144279724634109
3.9575830332132855,0.0054284669139312266,0.018811457381359097
3.9615846338535414,-0.005330960086008958,0.017720058903740496
3.9655862344937978,0.011700570094137731,0.016264435786065148
3.9695878351340537,0.0028376883480380607,0.019036371608231305
3.97358943577431,-0.012794499551825473,0.018955114235687527
3.977591036414566,0.024735062996284782,0.015141829247990193
3.9815926370548222,0.0026400492267364497,0.013761147026313921
3.985594237695078,0.008512122838370764,0.013427951584665039
3.9895958383353345,0.02277227547883412,0.014110824062153965
3.9935974389755904,-0.01358935090755245,0.015811464459089323
3.9975990396158463,0.04315399171382351,0.014712374689765557
4.001600640256102,-0.008652946092510702,0.012445106707015114
4.0056022408963585,0.005549372418473708,0.015906594067340872
4.009603841536615,0.025668050541499992,0.015597468078112228
4.013605442176871,-0.01710068157116473,0.016578269821479506
4.017607042817127,0.011519487632882025,0.017189921309554754
4.021608643457383,-0.024649265912897008,0.019077389116065765
4.025610244097639,-0.006970003701791376,0.025779514507663245
4.029611844737896,0.021654126940254245,0.02521377771109287
4.033613445378151,-0.001508771618375423,0.02523257834268702
4.0376150460184075,0.005983697306627615,0.028394966579661316
4.041616646658664,-0.01771540609519967,0.029234676126642708
4.04561824729892,-0.0018334345401445388,0.030584683395098827
4.049619847939176,-0.01057141408222889,0.03242808246805761
4.053621448579432,-0.007016438822276372,0.02966564136739918
4.057623049219688,-0.009354750812192043,0.03262230303096121
4.061624649859944,-0.014782733461486428,0.03153329201603833
4.0656262505002,0.00045588194038916367,0.028922692321676723
4.069627851140456,-0.0032033384367965365,0.02956428795302228
4.073629451780713,-0.005434169273066348,0.023139000902386936
4.077631052420968,0.0006174305753637032,0.023437319908095954
4.081632653061225,0.007755590577324882,0.023665446618177682
4.085634253701481,-0.006910790858920556,0.021128752036270553
4.089635854341737,0.01602764952968756,0.020768314448012484
4.093637454981993,-0.017325881312399476,0.01904793971805623
4.097639055622249,-0.004284551719207411,0.015713128923471188
4.101640656262505,0.015656397187844614,0.015474308884686892
4.105642256902761,-0.024599248780064545,0.012203132937727993
4.109643857543017,0.015570978153288397,0.013174504277080811
4.1136454581832735,0.01063865407697429,0.013318665987467181
4.11764705882353,0.024512606275638962,0.013056222275504906
4.121648659463785,-0.01837609679804214,0.01546527540637207
4.125650260104042,0.008660554944959365,0.014487677375434091
4.129651860744298,-0.003823447916323712,0.015831178441283136
4.133653461384554,-0.009630071101261389,0.01820167589064478
4.13765506202481,-0.020888091425590276,0.01832424680346377
4.141656662665066,-0.0067072194980067005,0.019907653185758337
4.1456582633053225,0.018833869041626934,0.023221213603831562
4.149659863945578,0.012213191743149311,0.025233664669942975
4.153661464585834,0.01705875660738828,0.026484358910134204
4.157663065226091,0.004194133296693836,0.02587291639703384
4.161664665866347,-0.014547194923554087,0.026295760553145336
4.165666266506602,0.010135000105162923,0.02705155225853895
4.169667867146859,-0.006726033232937813,0.025400365659957583
4.173669467787115,-0.03810029404606943,0.027662763521496467
4.1776710684273715,-0.010144134237191958,0.027127350040417605
4.181672669067627,0.008262066083494887,0.025954814381983254
4.185674269707883,-0.0030010987489138895,0.024185731413742726
4.18967587034814,0.00898941638080272,0.0247935038787376
4.193677470988396,0.02909789521605623,0.022557806853695052
4.197679071628651,0.0034691778569514173,0.020746238770299855
4.201680672268908,-0.003389846502254976,0.025324075744408682
4.205682272909164,-0.024453955870115694,0.02630693335201308
4.2096838735494195,0.014637377371571248,0.02609421054459996
4.213685474189676,-0.0031930431646966665,0.023312808978856618
4.217687074829932,-0.020741323170263823,0.02366768730289263
4.221688675470189,0.009057828349585746,0.025263728570892575
4.225690276110444,-0.010491417709726671,0.02390404702164785
4.2296918767507,-0.005123873864764697,0.021778551212729844
4.233693477390957,-0.010490228435204215,0.024928924405473188
4.237695078031213,-0.0017485546772914343,0.024942947646084485
4.2416966786714685,-0.009125656676111869,0.023863483353089462
4.245698279311725,0.000766640531276272,0.026042840726386532
4.249699879951981,-0.02480714768980928,0.02152677919377475
4.253701480592237,0.03177840705597216,0.021580781272923826
4.257703081232493,-0.005166451560436236,0.02109279690861192
4.261704681872749,-0.00024258182516392798,0.022257345774484957
4.265706282513006,0.004986510327183794,0.02113140222189781
4.269707883153261,-0.0028764394712025706,0.01802574793162487
4.2737094837935174,0.02103409202140032,0.017605507274909324
4.277711084433774,-0.009674434750700133,0.020935866722908442
4.28171268507403,0.011415560792531617,0.02207480831945284
4.285714285714286,0.011190038026043896,0.020602093014186404
4.289715886354542,0.009563692509455872,0.0201433005308562
4.293717486994798,-0.002994198094341528,0.01769344985434335
4.297719087635055,-0.0033497581880927454,0.0167322527981595
4.30172068827531,0.009870932961756866,0.01837162344965237
4.305722288915566,0.0026582016857540787,0.0190792291048867
4.309723889555823,0.009148105127484308,0.019223116951995807
4.313725490196078,0.0221301611644957,0.020691253996821795
4.3177270908363345,0.0009301573222432406,0.02075936793719945
4.321728691476591,-0.00033283379073250957,0.021105749925814675
4.325730292116847,0.004211174872466818,0.017769156802776142
4.329731892757103,-0.0041833078812417695,0.014362576174687334
4.333733493397359,-0.004343525339556482,0.013972546936412228
4.337735094037615,0.0029804433028303118,0.015357342966945419
4.341736694677872,-0.01288652136351815,0.01802315594866777
4.345738295318127,0.014363189353851134,0.017720511881308555
4.3497398959583835,0.011223316936694464,0.01450149608047381
4.35374149659864,-0.0017539495272988288,0.01365196704817343
4.357743097238895,0.01627574381969072,0.012527362150361666
4.361744697879152,0.008357928840903929,0.011462739301216733
4.365746298519408,0.00647155343605339,0.010439053543528523
4.369747899159664,0.002722258883989782,0.011977295545807894
4.37374949979992,0.030150541249944717,0.013689868209215438
4.377751100440176,-0.0031804714528708136,0.013900161966996335
4.3817527010804325,-0.010526034573864992,0.013759552060411327
4.385754301720689,-0.0042003840681704135,0.014867889598023565
4.389755902360944,-0.006159833787100266,0.012726327333139982
4.393757503001201,-0.013347074866081755,0.013588006437389465
4.397759103641457,-0.0028638212468755407,0.013959558593514523
4.401760704281713,-0.012261237396613466,0.0179930926571128
4.405762304921969,-0.02366145766601496,0.017837153038727845
4.409763905562225,0.0007748649986160211,0.01879852430864238
4.413765506202481,0.021281905624273012,0.018988223338332014
4.417767106842737,0.013393867974558112,0.01794223312099876
4.421768707482993,0.011818487074152896,0.01778422878352612
4.42577030812325,0.016707113143048714,0.016484339259290715
4.429771908763506,0.0032225866851167033,0.01811820737002883
4.433773509403761,0.007235325073580357,0.01926667522192687
4.437775110044018,-0.0015197489528520633,0.018087519730262052
4.441776710684274,0.009662106673898071,0.020390508136985022
4.44577831132453,-0.016219202164762293,0.022049927960654504
4.449779911964786,0.02157231227711918,0.01919931997363802
4.453781512605042,-0.005708481976281441,0.021302693249200894
4.4577831132452985,0.009439807764300822,0.020167017635067196
4.461784713885554,-0.011776561239316358,0.020638946584610122
4.46578631452581,-0.009466888183965627,0.019917420084518883
4.469787915166067,0.01596810265354044,0.019344412844860385
4.473789515806323,0.003290165605732777,0.02142115531731335
4.4777911164465785,-0.009312597665862057,0.022869014033393746
4.481792717086835,0.014161006812979595,0.02007735220427651
4.485794317727091,0.011913024819955272,0.02142473830831277
4.4897959183673475,-0.007057099026218749,0.019946670964453343
4.493797519007603,-0.000998412977090448,0.019336031270255967
4.497799119647859,-0.016878952400370958,0.01998129050853984
4.501800720288116,-0.021131089365684683,0.017894974515553094
4.505802320928372,-0.020512080030364234,0.01884196244043364
4.509803921568627,0.0028868964729070645,0.0199188959631338
4.513805522208884,-0.036147671872757164,0.021535035371948875
4.51780712284914,0.008988856855932597,0.021129960439510598
4.5218087234893956,0.01983460519912011,0.018763149671278866
4.525810324129652,0.002251234630766943,0.018033338978908745
4.529811924769908,-0.00016160942114588472,0.02043153218646037
4.533813525410165,0.0014119863438150615,0.022153254556108466
4.53781512605042,0.01845897225250646,0.020770924505039277
4.541816726690676,-0.008418575927303487,0.02491974789132208
4.545818327330933,-0.016250643236596234,0.023834485234817147
4.549819927971189,0.022046161149404536,0.026407121732253454
4.5538215286114445,0.01410773293480909,0.025309089963743495
4.557823129251701,-0.021358817285326286,0.023132203858351255
4.561824729891957,0.021705532541279833,0.02149930751923929
4.565826330532213,0.0149701800919976,0.02327228236287278
4.569827931172469,-0.0038678398231191905,0.024426107000745226
4.573829531812725,-0.015345782997904027,0.024328405831885655
4.577831132452982,-0.009695351507597818,0.024470698174595937
4.581832733093237,-0.00033956572574149593,0.023474831437177962
4.5858343337334935,0.005665547535271027,0.02634718848448327
4.58983593437375,0.009619415546163954,0.02410145664597063
4.593837535014006,-0.007850523113051344,0.025031543783295918
4.597839135654262,0.0129434619987102,0.022548734793578287
4.601840736294518,0.008398751038674988,0.024584918180545742
4.605842336934774,0.02424566465098882,0.02606740132603433
4.609843937575031,0.004473505332363464,0.025900641466500493
4.613845538215286,0.009292850870606523,0.023911282372831435
4.617847138855542,0.002828880522003468,0.024098011201789934
4.621848739495799,-0.015424977076728692,0.02279180463669611
4.625850340136054,-0.035297070006034784,0.021376348046095204
4.629851940776311,-0.004616494901760346,0.020488609594375866
4.633853541416567,-0.022808949466160765,0.020937510196509267
4.637855142056823,-0.019680450022443882,0.018257954816453197
4.641856742697079,-0.001397947148220954,0.01737513831000893
4.645858343337335,0.0007831159441901215,0.017213581637006266
4.649859943977591,-0.008518408998810052,0.017225896202054853
4.653861544617848,0.0037604680575642987,0.0212069265073965
4.657863145258103,-0.00544116308278682,0.021871982826352998
4.6618647458983595,-0.014469195642624052,0.024537757103485658
4.665866346538616,-0.017891853865239293,0.02610223345516505
4.669867947178871,0.016707975833281614,0.025098867198127373
4.673869547819128,-0.010118038597836412,0.023207950923524883
4.677871148459384,-0.0025854392994749073,0.02322655756376281
4.68187274909964,0.014522690603012445,0.020041139035929086
4.685874349739896,-0.01771249891783543,0.020191608420625635
4.689875950380152,-0.022759816533026608,0.02099652256768013
4.6938775510204085,-0.0004711458538469013,0.023338793199694
4.697879151660665,0.007753208056541789,0.023538297656079017
4.70188075230092,-0.0008287874013210928,0.019622994583697106
4.705882352941177,0.004718053169695166,0.01930716836660055
4.709883953581433,0.02380112854998304,0.018018667063294944
4.713885554221688,-0.0002460937684306268,0.017712653504581875
4.717887154861945,0.0003031923621734641,0.02103439338719379
4.721888755502201,0.004007976080717063,0.020985882488048783
4.7258903561424574,-0.0006172189282126443,0.020866894845050055
4.729891956782713,-0.01700064200337441,0.02041102273088707
4.733893557422969,0.006050141874174434,0.020298580182224305
4.737895158063226,-0.0023275990769330295,0.021749682291400264
4.741896758703482,0.016172745679309902,0.01900579204393612
4.745898359343737,-0.013705773600899999,0.01645487187211107
4.749899959983994,-0.011046429836556867,0.015504765962241417
4.75390156062425,-0.00210652770295959,0.015198710532952003
4.757903161264506,-0.018229929721279767,0.015584028402164848
4.761904761904762,0.020435993254792013,0.013770548700582958
4.765906362545018,0.022653657685995757,0.010593368352201064
4.7699079631852745,-0.011764495198679765,0.013034944481214887
4.77390956382553,0.015223988819123613,0.01396055983895227
4.777911164465786,-0.0034079385249479142,0.015549388502399295
4.781912765106043,-0.0035770600413314595,0.015143300058497351
4.785914365746299,0.001183413630868973,0.014276986675061559
4.7899159663865545,-0.010031711826370821,0.017416486928605614
4.793917567026811,0.010459577865103868,0.020891952054044618
4.797919167667067,-0.007489739268818744,0.022098079590930724
4.8019207683073235,-0.016632570687193697,0.024369411244015607
4.805922368947579,0.01878266283199894,0.02225576545565017
4.809923969587835,0.020808356125429212,0.02187120479716395
4.813925570228092,-0.014854045723767436,0.021693285610372252
4.817927170868347,-0.008656580787050243,0.020738363702447513
4.821928771508603,0.020441898637561556,0.02023358494698763
4.82593037214886,-0.010901245457089835,0.019680524692936612
4.829931972789116,0.002972340952320085,0.02193930342845243
4.833933573429372,0.0029114568752881993,0.02202525263005283
4.837935174069628,-0.016668972361272228,0.02208315451943894
4.841936774709884,0.0069166470474143205,0.020870326107415273
4.845938375350141,0.000554179120082027,0.020387049898442793
4.849939975990396,-0.018364182531378982,0.0211984273502732
4.853941576630652,-0.029595454882616442,0.022363625771852004
4.857943177270909,0.005014712492929429,0.022269592825598032
4.861944777911165,0.002930828143042466,0.022538301058031483
4.8659463785514205,0.01693517659518625,0.0235703854993749
4.869947979191677,0.01113046380491848,0.023019464866612997
4.873949579831933,0.013309757134720471,0.021940995265506864
4.877951180472189,-0.003314629116472067,0.022210258410057533
4.881952781112445,0.014042970819032484,0.0238916319804096
4.885954381752701,-0.0009151048528065617,0.02143574317214127
4.889955982392958,0.012445221204861872,0.019581700033242354
4.893957583033213,-0.01347753839947602,0.020869009742544714
4.8979591836734695,-0.0072019347366324305,0.01942109505442606
4.901960784313726,0.004195980534610451,0.019795615146895724
4.905962384953982,-0.01789860347372062,0.019848840462795198
4.909963985594238,-0.01959670424932635,0.0215797748278881
4.913965586234494,0.005641250343406757,0.01913007114954448
4.91796718687475,0.004056015767345769,0.019989756458070586
4.921968787515006,-0.011066209906916676,0.02199932018877197
4.925970388155262,0.013705894819179039,0.02026360675417062
4.9299719887955185,-0.005950620225730728,0.01631402512255738
4.933973589435775,-0.016284433747328932,0.018317451589744693
4.93797519007603,0.017923345948205972,0.020908971289808422
4.941976790716287,-0.004103607347914174,0.019152782045036718
4.945978391356543,0.01776028206068498,0.018052715577511844
4.949979991996799,-0.011819755614871705,0.017703847219089054
4.953981592637055,-0.007672673395604728,0.019319674050239443
4.957983193277311,0.010133898818635616,0.01806132520325284
4.961984793917567,0.02493671114378342,0.020451233681685332
4.965986394557824,-0.009944714752021853,0.021303074179073282
4.969987995198079,0.007424123356114137,0.01984544141904082
4.9739895958383356,-0.002274549411679062,0.021487249201355994
4.977991196478592,0.009472117585824199,0.022672735231814515
4.981992797118847,0.0054632738329723485,0.021082617851851546
4.985994397759104,0.006115778631020182,0.019611165254033502
4.98999599839936,0.005392059700339915,0.022611581581809353
4.993997599039616,-0.009633199554419146,0.023527265781620444
4.997999199679872,-0.0121533277907009,0.022960926575355547
5.002000800320128,0.00930991661711591,0.021183368850046444
5.0060024009603845,-0.016713151366369354,0.021730956611062124
5.010004001600641,0.007213130120347792,0.020048281849966227
5.014005602240896,-0.006626860980856403,0.018212222160264226
5.018007202881153,0.00037209660416132,0.018412574642942634
5.022008803521409,0.0009234236583813058,0.017148825033578265
5.0260104041616644,-0.005592361081094831,0.01720069502586319
5.030012004801921,0.01642963383227734,0.017455283985680446
5.034013605442177,-0.0066804719228183125,0.01847834826867471
5.0380152060824335,-0.026466785462015377,0.015722356979348442
5.042016806722689,0.006297408854117516,0.01520643550272928
5.046018407362945,0.0065449830341734105,0.014109855512783752
5.050020008003202,-0.0006736156930970419,0.013899757406653326
5.054021608643458,0.005120801976184671,0.013296460865305254
5.058023209283713,0.02401753297697991,0.015001714030212325
5.06202480992397,-0.015916452183741214,0.015089523022722292
5.066026410564226,-0.0027475311451612056,0.018366612486037676
5.070028011204482,0.016088156604008055,0.017847901842805332
5.074029611844738,-0.018403571742163435,0.016975812321162364
5.078031212484994,0.007473141857903183,0.015632879982199716
5.082032813125251,-0.018289680331401794,0.013830286369772819
5.086034413765506,0.009453465853948621,0.01644334677974126
5.090036014405762,-0.012109400531867185,0.01788786481493399
5.094037615046019,-0.005819716577371255,0.01825724146035931
5.098039215686275,0.00021307664389795273,0.02061533556379376
5.1020408163265305,-0.013421589801919742,0.022607460346079133
5.106042416966787,-0.0005528330154287537,0.021214738760545346
5.110044017607043,-0.0034299952066682263,0.023019953926020256
5.1140456182472995,-0.0035939509413158315,0.02037440726249014
5.118047218887555,-0.011948762603385805,0.021278163586696562
5.122048819527811,-0.0008947044587317123,0.02116538569859685
5.126050420168068,0.00305279630171883,0.021093772540606428
5.130052020808323,-0.0014695422893662444,0.022384533076641535
5.1340536214485795,0.008035896067533323,0.018735806071913816
5.138055222088836,0.01793913340784695,0.01679418001915071
5.142056822729092,0.018051678517566488,0.016925797076800118
5.146058423369348,-0.022831704179310058,0.016282127279273338
5.150060024009604,-0.03396504334298842,0.013559523666871218
5.15406162464986,-0.009699828429843047,0.012872166307624944
5.158063225290117,0.04212240024190903,0.01025665909901855
5.162064825930372,0.0011501819306222677,0.010036229041559694
5.166066426570628,0.013982565513310539,0.010942744096505669
5.170068027210885,-0.00949182958751364,0.012844796538050787
5.17406962785114,-0.010784566722381048,0.016361960500665566
5.178071228491397,-0.02140066119051604,0.019556437899843505
5.182072829131653,0.005945040724322323,0.020978782495571623
5.186074429771909,-0.016205449046227175,0.026995395678833193
5.190076030412165,-0.016406091582833383,0.026615393121918126
5.194077631052421,-0.008891137570084707,0.0269316465413906
5.198079231692677,-0.014981196279231643,0.02826848710069073
5.202080832332934,-0.013735602943722716,0.02947076625083761
5.206082432973189,-0.007813603209693118,0.03257002649657812
5.2100840336134455,0.004500297711250671,0.032244901506007013
5.214085634253702,-0.010902881944731007,0.031975316087984144
5.218087234893958,0.005849588960832522,0.03171942969279365
5.222088835534214,0.0003763383551583824,0.029551691689255005
5.22609043617447,-0.004662467702376782,0.026599730848134086
5.230092036814726,0.005867688236306667,0.02722728796490581
5.234093637454982,-0.005452533939283099,0.02189231950435478
5.238095238095238,-0.0036204829352173527,0.02241325767691922
5.2420968387354945,-0.005115555531807747,0.021934371323328292
5.246098439375751,0.006618565875617855,0.021368008158486478
5.250100040016006,0.010549787175550066,0.01974954365746637
5.254101640656263,-0.003963785033616477,0.017146778708815643
5.258103241296519,0.0034614364611406058,0.01713475050848203
5.262104841936775,0.0019634930113450466,0.01546268771652047
5.266106442577031,-0.007564773836666771,0.013474544010405385
5.270108043217287,-0.00013256875531072698,0.01288744644835689
5.274109643857543,-0.02264248046516755,0.01158706948064707
5.278111244497799,0.016847061863654974,0.011091679723076502
5.282112845138055,0.004485604427064865,0.01049303854865878
5.286114445778312,-0.0035102925318912966,0.01033149712244609
5.290116046418568,-0.021809775237838384,0.008941435035121056
5.294117647058823,0.019708018477847228,0.009208143809783064
5.29811924769908,0.014871927559682384,0.009170237988555721
5.302120848339336,-0.012972882813985233,0.011966104043542213
5.306122448979592,-0.0009688685861732771,0.013673380808842596
5.310124049619848,0.017239602890535242,0.013523024664136725
5.314125650260104,0.009326359432180064,0.013505890215329093
5.3181272509003605,-0.009299028818005707,0.01610181730427811
5.322128851540617,-0.014824058961436496,0.018137208307151202
5.326130452180872,-0.00324220108033569,0.018809294903768623
5.330132052821129,-0.015432531074954212,0.02021019661626983
5.334133653461385,0.008672323826679896,0.0198226059063348
5.3381352541016405,0.003465027725480319,0.02219801896231766
5.342136854741897,0.006921709791583406,0.022471942981973605
5.346138455382153,-0.0016678002735042027,0.02389731430243869
5.3501400560224095,0.024717780633107124,0.02268156103383728
5.354141656662665,0.023309442107262168,0.020566024802093505
5.358143257302921,-0.010076881617383949,0.022268256108880984
5.362144857943178,-0.0021268966314703227,0.02307094453086836
5.366146458583434,0.010085998591346155,0.020218362748321343
5.370148059223689,-0.010841922410766909,0.018230110187206074
5.374149659863946,-0.004151387634897663,0.01617688743635546
5.378151260504202,0.012083502601252351,0.01800320210948648
5.382152861144458,0.013081826885931751,0.021477129073865755
5.386154461784714,-0.017714428706360166,0.020363336245510445
5.39015606242497,0.0030733806137303683,0.019243830162606085
5.394157663065227,-0.023742730538406014,0.019366202827442915
5.398159263705482,0.010178826176324735,0.018746986336597108
5.402160864345738,0.013369221951782678,0.018888363534660644
5.406162464985995,-0.005211827303295809,0.018367594436755237
5.410164065626251,-0.0008033811096729701,0.019053265803364867
5.4141656662665065,-0.014906121809179976,0.02126902710631455
5.418167266906763,-0.012517291094634335,0.020670617468973265
5.422168867547019,-0.01217465258817114,0.024103237290109217
5.4261704681872756,0.016514973508133322,0.02184245083923224
5.430172068827531,0.01798935796163156,0.020296760940206604
5.434173669467787,0.0026139657144406466,0.01954025201043689
5.438175270108044,-0.012855016385736499,0.01933444725548706
5.442176870748299,-0.014539199771705974,0.020083969464585984
5.4461784713885555,-0.03248273436159346,0.020344486878817524
5.450180072028812,0.013645756032770313,0.02159209300841064
5.454181672669068,-0.0021380356975693442,0.02228118034364597
5.458183273309324,-0.0071383007346955555,0.02304429434858902
5.46218487394958,0.0048155806811071185,0.02069619413027001
5.466186474589836,-0.0038355496878097577,0.02221722438636582
5.470188075230093,0.014831135138702583,0.020786088624888947
5.474189675870348,0.009189398506884914,0.024254314182424602
5.4781912765106044,-0.023111112362832514,0.024297314833218366
5.482192877150861,-0.0038988830562543546,0.023819344671354083
5.486194477791116,-0.0019756116288225677,0.024804415537228112
5.490196078431373,-0.02171053406561694,0.023235350943747526
5.494197679071629,0.008991779880755809,0.021885352675239958
5.498199279711885,0.02419261196392364,0.022298431880837917
5.502200880352141,-0.01906085264554785,0.02115931553262076
5.506202480992397,0.023246622953036238,0.021955740955740027
5.510204081632653,-0.01999889895388221,0.022155543749366232
5.51420568227291,-0.02589202357208409,0.020463811999249668
5.518207282913165,0.0006855920578726707,0.021578944139911956
5.5222088835534215,0.0006483914041677258,0.017926134595297783
5.526210484193678,-0.022585207744827022,0.01956615548258928
5.530212084833934,-0.0009115764413854406,0.02219762911299283
5.53421368547419,-0.00854964692872486,0.024702449987550047
5.538215286114446,-0.004768859370507005,0.027063434082553493
5.542216886754702,-0.015861202634589188,0.030493183963118484
5.546218487394958,0.008758076446094522,0.028293572413849326
5.550220088035214,0.034433872475777776,0.026965458126672424
5.5542216886754705,0.002328318341242209,0.026883680716998662
5.558223289315727,0.0009191139141201684,0.02641915884648958
5.562224889955982,0.0008789963016791373,0.027441411854970035
5.566226490596239,-0.008869855538397099,0.024807005872082993
5.570228091236495,0.023922500714713735,0.02587519120366078
5.574229691876751,-0.01824642970230238,0.023475143189340915
5.578231292517007,-0.01601711834784894,0.025865625602953107
5.582232893157263,-0.0042793808841297114,0.02261285940286368
5.5862344937975195,0.0019148929350276652,0.01964598034482958
5.590236094437775,0.0017223772096078595,0.01575649067647397
5.594237695078031,-0.00546945349738925,0.017029131844872796
5.598239295718288,0.006089785139079334,0.020648222278226897
5.602240896358544,-0.018164173099257087,0.019973548549723236
5.606242496998799,0.004376059920908041,0.02232243853192935
5.610244097639056,-0.007386485113359532,0.021658418320300098
5.614245698279312,-0.01186424914147971,0.021214630655391403
5.618247298919568,-0.00943701402350854,0.019016063691918928
5.622248899559824,0.023782113813560997,0.018504687566037493
5.62625050020008,-0.00789303814157709,0.014097222861215588
5.630252100840337,0.01858244683888853,0.016559675438627332
5.634253701480592,0.012495680266925626,0.017097225557295828
5.638255302120848,0.005671033200093871,0.018109130682826876
5.642256902761105,0.004874149206282785,0.018574754569782775
5.646258503401361,0.011849195838513777,0.016322282279345256
5.6502601040416165,-0.003972235349714103,0.01718307317543546
5.654261704681873,0.00844400646060923,0.015919790419390435
5.658263305322129,0.001835041233851959,0.018143896548386093
5.6622649059623855,-0.01980591013622924,0.019789193719559683
5.666266506602641,0.009437939662911479,0.02040320403158047
5.670268107242897,0.03156019055095702,0.020310635072823286
5.674269707883154,-0.005553741474413177,0.02120621513073062
5.67827130852341,0.005846438548955675,0.01899938927738401
5.6822729091636655,-0.000835509768545923,0.01963194909777454
5.686274509803922,-0.013004521492615558,0.01876870758044935
5.690276110444178,0.0018038920259453959,0.020003624412176013
5.694277711084434,0.007673864608119086,0.020003768347768267
5.69827931172469,0.009620727879112945,0.02121324806338724
5.702280912364946,-0.008079095137971434,0.020849490805227685
5.706282513005203,0.015722724672851334,0.018869059883201856
5.710284113645458,0.009576632588102858,0.017055920186257907
5.714285714285714,-0.01552726091751826,0.018196267039856013
5.718287314925971,0.023758985039620244,0.017718846476042605
5.722288915566227,-0.00621158265150903,0.017069588491112588
5.7262905162064826,-0.000962748652689497,0.017947920933538496
5.730292116846739,-0.007267500950145664,0.017891177749120152
5.734293717486995,-0.027704740528031176,0.020050692495953388
5.738295318127251,-0.01581080602049357,0.018460054589231296
5.742296918767507,0.004124770129909256,0.01940693526269197
5.746298519407763,-0.00154502465952286,0.018193859056080057
5.75030012004802,0.010045292043150212,0.01829615241042188
5.754301720688275,0.011934387118099049,0.017536745674498533
5.7583033213285315,-0.020391101352378614,0.0185369110274299
5.762304921968788,0.013825170851476701,0.02082277388771885
5.766306522609044,0.003035654025012811,0.02300082881399322
5.7703081232493,0.0012847198787577579,0.022448949740909257
5.774309723889556,0.010934149004647835,0.021193189536527036
5.778311324529812,-0.009764144460134452,0.021498930319758587
5.782312925170069,-0.009197994215033966,0.020909849293293373
5.786314525810324,0.003813756608824819,0.022591483590201248
5.7903161264505805,0.004203144263495436,0.022326811039577503
5.794317727090837,0.013665503891592653,0.019104362952672108
5.798319327731092,-0.029885987462923452,0.018338242896716494
5.802320928371349,-0.02678185918966296,0.0198887812713285
5.806322529011605,-0.008726380607576066,0.020277005736631742
5.810324129651861,0.010152064324251002,0.017399233374209677
5.814325730292117,0.028001902604266708,0.015533709492074563
5.818327330932373,-0.0025080931796345276,0.015545896556821039
5.822328931572629,-0.012503052930144797,0.0174306135980259
5.826330532212886,-0.019970981717067005,0.020515813122815328
5.830332132853141,0.006139770712921502,0.022824573617866405
5.834333733493398,0.011707594118696216,0.021010726364165785
5.838335334133654,-0.014188449810360939,0.020439563596302113
5.842336934773909,-0.008310446118325375,0.024321779245644975
5.846338535414166,-0.011932637821555847,0.024512012029660375
5.850340136054422,0.00625174320771869,0.024755974327501998
5.854341736694678,-0.004089863904205674,0.026343122801305397
5.858343337334934,0.019734200508548475,0.025867573457101768
5.86234493797519,-0.018916293309085994,0.027095053805897853
5.8663465386154465,0.012303428380867155,0.028647754418264736
5.870348139255703,-0.0037189919421213905,0.027815050657244402
5.874349739895958,-0.00018878513752188235,0.025023330679187362
5.878351340536215,0.00011369147602195607,0.02183092725121869
5.882352941176471,-0.0038647865922893437,0.021109955590333226
5.886354541816727,-6.973702274099252e-06,0.022599963948245913
5.890356142456983,0.013578915143128211,0.02118716480553147
5.894357743097239,0.0235440707526415,0.022710325303115557
5.8983593437374955,-0.013529141346703797,0.02134441648729034
5.902360944377751,-0.02572931783952815,0.018268313447793092
5.906362545018007,0.021004784032401195,0.01733126681688229
5.910364145658264,0.00523576936918927,0.016111721556922746
5.91436574629852,-0.016965316797679545,0.013906522473735456
5.918367346938775,-0.0029280140572997752,0.014725761809242344
5.922368947579032,0.020896092922566945,0.016531322884758275
5.926370548219288,-0.008106740477972522,0.01766294780037108
5.9303721488595444,0.008907107621666828,0.021027851680273633
5.9343737494998,-0.00334457212238883,0.02122542558587822
5.938375350140056,-0.007135637664224958,0.019098123842403236
5.942376950780313,-0.021446383668680336,0.01982304076813947
5.946378551420568,0.004181484167160152,0.019700044847747556
5.950380152060824,-0.014033821746483651,0.02292000134556368
5.954381752701081,0.013964929932868944,0.024162908938301596
5.958383353341337,0.009435849224290218,0.024946982586656057
5.9623849539815925,0.0058262262331886545,0.025465974327712353
5.966386554621849,-0.008482079552965122,0.024464053971826664
5.970388155262105,0.01340229214670255,0.024137866655421208
5.9743897559023615,-0.0042910017869038294,0.022684319444597076
5.978391356542617,-0.005907871035441592,0.020865686668627068
5.982392957182873,-0.010284624765629169,0.01977099950857832
5.98639455782313,0.00916960205562034,0.020424105868959267
5.990396158463386,-0.021147906934566953,0.01869199335026679
5.9943977591036415,-0.006024729786253825,0.019555642525123783
5.998399359743898,-0.0297079057434293,0.018390367311558325
6.002400960384154,0.0049576803430715355,0.01779702544791208
6.00640256102441,-0.0054930923562973855,0.017330648484061746
6.010404161664666,-0.014679145477222239,0.0184098166615844
6.014405762304922,0.014566881906803521,0.018726095191192678
6.018407362945179,-0.0050072271587492025,0.018679682489482152
6.022408963585434,-0.01552677572408899,0.018966304525039963
6.02641056422569,0.021811851551494617,0.021403601982400912
6.030412164865947,0.007066345424804908,0.020002987660868207
6.034413765506203,0.014437506917002893,0.01938989465388777
6.038415366146459,0.00288551415753216,0.020766510829219584
6.042416966786715,-0.0014278291567465927,0.021712688820127647
6.046418567426971,-0.011525997574226711,0.020407268321328113
6.050420168067227,-0.0068087600706175765,0.022154414965043952
6.054421768707483,-0.02492681376169227,0.024627460999584003
6.058423369347739,-0.01596987002176014,0.024127023203283002
6.062424969987996,-0.01879679685558934,0.02494617481219163
6.066426570628251,-0.004216235100125857,0.02210639907222064
6.0704281712685075,-0.012717784761548827,0.021391587653689124
6.074429771908764,-0.01188490188035151,0.018564327154166265
6.07843137254902,0.004448346683877469,0.018852167382290574
6.082432973189276,0.0045044320417813605,0.02187408303475613
6.086434573829532,-0.017639961310556083,0.02207478884003117
6.090436174469788,-0.021952898768016246,0.022732534514453853
6.094437775110045,0.011272635118317595,0.022609536390056213
6.0984393757503,0.01360219057381031,0.0221727423463288
6.1024409763905565,0.025910425111644445,0.020629115988479624
6.106442577030813,0.015107431874949806,0.020222020959776193
6.110444177671068,0.0009196554603190745,0.018677442141526203
6.114445778311325,-0.002799608888976844,0.02097173739589892
6.118447378951581,-0.0034657175698194747,0.024163356120505238
6.122448979591837,0.019548722283132727,0.02412395862399454
6.126450580232093,0.02274044248939061,0.025180327270188888
6.130452180872349,0.0046641046634719845,0.02533327741660491
6.1344537815126055,-0.010252408567100316,0.025199169528529186
6.138455382152862,-0.004698218603943031,0.022419299822837604
6.142456982793117,-0.005797114330781557,0.022199016489971884
6.146458583433374,0.006694413076451937,0.020760333384399095
6.15046018407363,-0.008267139630013735,0.021952046404758657
6.154461784713885,0.00039300814531889947,0.02479644092282222
6.158463385354142,0.011844510030588899,0.024821269785225447
6.162464985994398,-0.007957796543169526,0.023672515987475395
6.166466586634654,0.02084720234769518,0.02098943810556108
6.17046818727491,0.004373340955000152,0.02013800251954602
6.174469787915166,-0.003431560168213889,0.01906385308066286
6.1784713885554225,0.000690293709222828,0.01632034763229015
6.182472989195679,-0.008227872687551685,0.014032275962535822
6.186474589835934,-0.023881762559352062,0.01573107509308441
6.190476190476191,-0.019421938414668525,0.016533165834502175
6.194477791116447,0.02758217232272123,0.019235961650993255
6.1984793917567025,-0.007450347566072327,0.016876211739435563
6.202480992396959,0.006990956679493425,0.013873708384530963
6.206482593037215,0.01819920673569292,0.013255786511921889
6.2104841936774715,-0.006126466076884596,0.012940974102308581
6.214485794317727,-0.003073180653892659,0.015923987522091298
6.218487394957983,-0.006339302820607854,0.018042628018283546
6.22248899559824,0.005749105462167559,0.021290644458084453
6.226490596238496,-0.010512987567261982,0.021163634470066976
6.230492196878751,0.0008972133103281356,0.02218960595199062
6.234493797519008,0.023709098352869506,0.023177752125296068
6.238495398159264,0.003060038456387943,0.022892982878816744
6.2424969987995205,-0.004095200235091282,0.020129148137990743
6.246498599439776,0.0008854212036071434,0.020434852372907944
6.250500200080032,0.005310324628513272,0.020795227323901752
6.254501800720289,0.017111804299492387,0.02232264205316434
6.258503401360544,0.0008977555937742528,0.021182735091815418
6.2625050020008,-0.005133387725499718,0.021155886056712682
6.266506602641057,0.01610534415198591,0.018611634209288457
6.270508203281313,0.0027065822284166896,0.014959443921074922
6.2745098039215685,0.0009058483917982659,0.013938607339229615
6.278511404561825,0.01716196465460592,0.01367727147900254
6.282513005202081,0.003589807062025478,0.013508181968355785
6.286514605842338,0.013345698955069275,0.012695125028744848
6.290516206482593,0.0023080356137945455,0.013015484257280528
6.294517807122849,-0.009437796502949878,0.014534089600347978
6.298519407763106,-0.004634188409186909,0.014060981625232644
6.302521008403361,-0.016823606838895114,0.012567085338251318
6.3065226090436175,0.0014607067404622314,0.015096230716299645
6.310524209683874,-0.0054196795318952416,0.011967709935331902
6.31452581032413,-0.0017554466407815358,0.013567115309553394
6.318527410964386,0.01301300361708903,0.013289213788276567
6.322529011604642,0.028836488967248906,0.01461909581363426
6.326530612244898,0.022295151598174256,0.014513957606609534
6.330532212885155,0.006059280543425836,0.014469143317106649
6.33453381352541,0.010642094353071126,0.014556681408564398
6.3385354141656665,0.016241198361161092,0.014601199371587121
6.342537014805923,-0.02010123076693647,0.01236981100310166
6.346538615446179,0.0018472625413367622,0.01397244466577672
6.350540216086435,0.015779001542810648,0.01831561899547114
6.354541816726691,0.002908773145781104,0.019113822162441244
6.358543417366947,-0.003384468782586282,0.019497821727481872
6.362545018007203,-0.022369925012571318,0.019077415110837253
6.366546618647459,-0.00865441736238173,0.021244001824534224
6.370548219287715,0.000777598660304004,0.02290215047445946
6.374549819927972,-0.005897161545288181,0.022468787521135476
6.378551420568227,0.01087730726491071,0.022306352904057466
6.382553021208484,-0.004854744557617577,0.02253152514177555
6.38655462184874,0.014007672127240911,0.022215052805309124
6.390556222488996,-0.012146053662649772,0.025420574463236714
6.394557823129252,-0.014636132264498298,0.02474282058630479
6.398559423769508,0.011160057126685887,0.0203797036083166
6.402561024409764,-0.04125789347456861,0.01782983980322805
6.40656262505002,-0.018853134191139268,0.01857903601016815
6.410564225690276,-0.014868555609519038,0.017679111463121826
6.4145658263305325,-0.011982237364666934,0.017331801354796297
6.418567426970789,-0.022914420361709837,0.016094782787528683
6.422569027611044,-0.014621788593352364,0.01808343358618818
6.426570628251301,-0.056285868150032406,0.01736519439062778
6.430572228891557,-0.03269629107862118,0.023328427297099164
6.434573829531813,-0.019540652467861512,0.02573378246020664
6.438575430172069,-0.026082793068598828,0.024567330336028453
6.442577030812325,-0.02316041181843955,0.025084801547214073
6.4465786314525815,-0.02148442066797322,0.02852704539747052
6.450580232092838,-0.014402454427921905,0.02988371232134391
6.454581832733093,-0.036246648813025466,0.03694467805365041
6.45858343337335,-0.03637578144138314,0.04127399838636407
6.462585034013606,-0.011354563547353145,0.04213436885001928
6.466586634653861,-0.022799141648275397,0.0443015117289678
6.470588235294118,-0.02303612894673025,0.04562702490643345
6.474589835934374,-0.03645814658990832,0.047232448547965114
6.47859143657463,-0.03634531591924926,0.04305646650541266
6.482593037214886,-0.018024708495598632,0.045761132945298696
6.486594637855142,-0.03548458432949234,0.049105475545804404
6.490596238495399,-0.04061406008571508,0.04900787317240326
6.494597839135655,-0.024350147206064328,0.04898994749871179
6.49859943977591,-0.062427277354216236,0.050298365289037146
6.502601040416167,-0.04303976076171569,0.04721518318071309
6.506602641056423,-0.08042648223946662,0.0477826012810399
6.5106042416966785,-0.08345249135971303,0.04754687417955072
6.514605842336935,-0.08532172350051022,0.049008839161956044
6.518607442977191,-0.1126078152056355,0.0517228562969792
6.5226090436174475,-0.11135942659474422,0.05216847264088436
6.526610644257703,-0.08589460241596768,0.05963626334758699
6.530612244897959,-0.07971294260829469,0.06069258245901559
6.534613845538216,-0.09152501090575034,0.06754240290600684
6.538615446178472,-0.10575660794318918,0.0787535267057964
6.5426170468187275,-0.07407214698064384,0.08847569801773963
6.546618647458984,-0.10145681167384293,0.10240396605642722
6.55062024809924,-0.07921167669565883,0.11405100707933108
6.5546218487394965,-0.06326875258882526,0.12175584967275051
6.558623449379752,-0.06821796594634859,0.13134828111443858
6.562625050020008,-0.080958202247429,0.14006248662911827
6.566626650660265,-0.07323674778980369,0.1501920588765284
6.57062825130052,-0.09024490797372095,0.15792375813557918
6.574629851940776,-0.08836597502814461,0.16399279443637638
6.578631452581033,-0.0835812200734541,0.16961747519927478
6.582633053221289,-0.08275463916816302,0.16694947298238325
6.586634653861545,-0.0615064797067954,0.16458052625086583
6.590636254501801,-0.08228854591029086,0.1639020049888037
6.594637855142057,-0.05547552908427463,0.15777986078408382
6.598639455782314,-0.05503790971453808,0.15449658358852658
6.602641056422569,-0.07528937754420689,0.15488087846566415
6.606642657062825,-0.04431800851414044,0.15548239003291345
6.610644257703082,-0.03129721892766381,0.1541186098757893
6.614645858343337,-0.03104148316297656,0.14723777874974234
6.6186474589835935,0.013380639007028428,0.14851541693413603
6.62264905962385,0.013901060748143691,0.14136539380273078
6.626650660264106,0.03867669695462018,0.13760640789903122
6.630652260904362,0.07310209366187018,0.13947559774421453
6.634653861544618,0.06409949219750306,0.1357591888305002
6.638655462184874,0.08216921470895164,0.12803697754217902
6.642657062825131,0.08491400828115432,0.12147567474402642
6.646658663465386,0.10080678602445653,0.10952339176845133
6.6506602641056425,0.10368210428441826,0.09794420498646049
6.654661864745899,0.0897004968188828,0.09096161639992063
6.658663465386155,0.08116315975371126,0.0894606594939775
6.662665066026411,0.06828949531041177,0.08986386919680532
6.666666666666667,0.05530165706572788,0.08984531336708891
6.670668267306923,0.0027629954045040855,0.09442295442790687
6.674669867947179,0.016400960460517543,0.10153994868914534
6.678671468587435,-0.023798514996117768,0.10595497675106885
6.682673069227691,-0.046937728980747606,0.11301188823472659
6.686674669867948,-0.048544899756478355,0.12076597011969804
6.690676270508203,-0.0709824129943664,0.12655798229191711
6.69467787114846,-0.1014726161150139,0.13307664014422674
6.698679471788716,-0.09859066328035915,0.1313446870458982
6.702681072428972,-0.11726131774267785,0.1278808421457114
6.706682673069228,-0.10241704137415132,0.12021420676566298
6.710684273709484,-0.11739784935452102,0.1175455773350577
6.71468587434974,-0.13157139548465716,0.11231704485079026
6.718687474989996,-0.14632862767222496,0.11015070187495275
6.722689075630252,-0.09666908229702396,0.11025423749381674
6.7266906762705085,-0.0065775745944558475,0.10946252576023699
6.730692276910765,0.15071231784872374,0.11374819366742929
6.73469387755102,0.37334227691389893,0.11705314160841543
6.738695478191277,0.6278096100513028,0.1246894198413388
6.742697078831533,0.8648649919665764,0.13654925417413072
6.746698679471789,0.9957548832913733,0.15887350295056443
6.750700280112045,0.9789782359647358,0.17135508013857612
6.754701880752301,0.8592928576611055,0.16867724874105947
6.7587034813925575,0.6505797823683105,0.18481404765293738
6.762705082032813,0.38144901262449693,0.2353195713988576
6.766706682673069,0.12497094384813334,0.32190539752054725
6.770708283313326,-0.09750447689427867,0.44061181104967717
6.774709883953582,-0.2051693477612681,0.5801195534283813
6.778711484593837,-0.2712113894896361,0.7141152914987402
6.782713085234094,-0.30265768641989227,0.8318083894133401
6.78671468587435,-0.2718019984633386,0.9147174110760119
6.7907162865146065,-0.22178054728027363,0.953573020183697
6.794717887154862,-0.22987867927418176,0.95025193114974
6.798719487795118,-0.2139345506480941,0.9503818338048606
6.802721088435375,-0.17796077365057628,0.9812625681359125
6.806722689075631,-0.19867889097009245,1.0
6.810724289715886,-0.19728877778877021,0.9890086481149895
6.814725890356143,-0.1787780069271944,0.9336499779245288
6.818727490996399,-0.17934644020416948,0.8336512741911728
6.8227290916366545,-0.18737142180172275,0.7145586289643061
6.826730692276911,-0.18981169027426928,0.5955954391947695
6.830732292917167,-0.18235940324281302,0.48964928270480207
6.834733893557424,-0.19456428324437258,0.41937934579501823
6.838735494197679,-0.17473361460936687,0.3907426948622059
6.842737094837935,-0.16195923049309185,0.39910961557388586
6.846738695478192,-0.1962481933121558,0.4118359228413151
6.850740296118448,-0.17090423592884027,0.40906837102163923
6.8547418967587035,-0.1499305086970363,0.39641083518310355
6.85874349739896,-0.15647995251996286,0.377704625635578
6.862745098039216,-0.13329366140999338,0.3656942723063347
6.866746698679472,-0.1369649673914948,0.3583785421240939
6.870748299319728,-0.09305264343993692,0.34781716578773086
6.874749899959984,-0.09499647242114044,0.3450669627281288
6.878751500600241,-0.0885303601341064,0.3439696812888874
6.882753101240496,-0.05957750829924665,0.3363893781472345
6.8867547018807524,-0.036485138615155274,0.33004366466981966
6.890756302521009,-0.01355447574642405,0.32297091453651655
6.894757903161265,0.031845206802813754,0.3163806566340023
6.898759503801521,0.04270969984672096,0.30171422261927017
6.902761104441777,0.10530021290126464,0.2869705929795676
6.906762705082033,0.1180187140532225,0.2723803120904244
6.91076430572229,0.16632048839378155,0.25139006325577345
6.914765906362545,0.1551650676083533,0.22989262461180676
6.918767507002801,0.20654948225487793,0.20681589926857058
6.922769107643058,0.23980239587849042,0.1812514719578679
6.926770708283313,0.26047087154895704,0.16131740647108078
6.9307723089235695,0.2844751757658061,0.15437745983780396
6.934773909563826,0.33153982262940296,0.14839679272257056
6.938775510204082,0.35057268992101137,0.15353241668936649
6.942777110844338,0.3609765048441073,0.1563625060260644
6.946778711484594,0.3587309833162848,0.1740111007838867
6.95078031212485,0.34477162544231466,0.1965282130516389
6.954781912765107,0.3429005085877878,0.2232647146150106
6.958783513405362,0.36337387505265534,0.25823597757299066
6.9627851140456185,0.3185774811999411,0.30411655542816224
6.966786714685875,0.3241861046314867,0.3565224017061403
6.97078831532613,0.29248137934404267,0.40770184389939856
6.974789915966387,0.2542591290967053,0.4568426977331795
6.978791516606643,0.24618241270710448,0.49408015703291736
6.982793117246899,0.19736000492836378,0.5290489517728633
6.986794717887155,0.20129874223869518,0.5596904692204938
6.990796318527411,0.1800591497875782,0.5851008638710268
6.9947979191676675,0.1347558097622007,0.6033931890025566
6.998799519807924,0.09107781577396758,0.6115846949611805
7.002801120448179,0.10257955423472637,0.6106187779680341
7.006802721088436,0.07558608780475558,0.6046643085357862
7.010804321728692,0.057736204701111626,0.5837995403888484
7.014805922368948,0.02944013671990545,0.5605876567976135
7.018807523009204,0.014999060722610567,0.5324552689937919
7.02280912364946,-0.008597928407999344,0.49762745250884
7.026810724289716,-0.014616838442938731,0.4581784309664414
7.030812324929972,-0.028609101114390963,0.42080886914009075
7.034813925570228,-0.034837038371704654,0.37605828325223123
7.038815526210485,-0.05039213977402082,0.3354978409253133
7.042817126850741,-0.09194525540445263,0.28966526797889564
7.046818727490996,-0.06381079649118676,0.24651716760056244
7.050820328131253,-0.06854049987714114,0.20831720517038171
7.054821928771509,-0.08938702423521515,0.17230909232140373
7.058823529411765,-0.08386654723169512,0.14606857014011992
7.062825130052021,-0.08574216444612925,0.12018401524925373
7.066826730692277,-0.07186911091513967,0.10002098218963601
7.0708283313325335,-0.10708145267033496,0.09336400272565683
7.074829931972789,-0.10530943759315978,0.08912402054994027
7.078831532613045,-0.10462568687710526,0.08383099668628864
7.082833133253302,-0.09871023429555498,0.08597702239839494
7.086834733893558,-0.1214994348951067,0.09004025297838751
7.0908363345338135,-0.10001934397391364,0.0987951370946224
7.09483793517407,-0.11023262081230947,0.107638347885202
7.098839535814326,-0.08521376287605882,0.12295239388133869
7.1028411364545825,-0.08425836520826933,0.1370549622581168
7.106842737094838,-0.09081898122148464,0.14887543171794793
7.110844337735094,-0.09347508976729757,0.15880762157025793
7.114845938375351,-0.12308884979300433,0.16986470341518164
7.118847539015607,-0.10135376629060332,0.17112021254379733
7.122849139655862,-0.09594259538693845,0.1783387392791381
7.126850740296119,-0.11343412801948109,0.18093140763035348
7.130852340936375,-0.10419883137647262,0.18013390854788833
7.1348539415766306,-0.08278648225900288,0.18121500200694377
7.138855542216887,-0.09376884228894712,0.18241746074245382
7.142857142857143,-0.09491158662547215,0.19038205627212165
7.1468587434974,-0.10616987306697652,0.1894914093001773
7.150860344137655,-0.08225459950546034,0.18803487884537223
7.154861944777911,-0.11691489230906396,0.18940457874003974
7.158863545418168,-0.1006651331385042,0.19025804767081786
7.162865146058424,-0.10259336863506532,0.1842382393652545
7.1668667466986795,-0.06556510622731451,0.18326629536731703
7.170868347338936,-0.09593003292146249,0.18088389664628202
7.174869947979192,-0.06930989562979063,0.18414254155940435
7.178871548619448,-0.07353627023014013,0.18383095888232065
7.182873149259704,-0.06063167550776478,0.1878888354225809
7.18687474989996,-0.074480201787105,0.18900687679778164
7.190876350540217,-0.058634662472538325,0.18581985903499765
7.194877951180472,-0.04413760842557024,0.18025477400727882
7.1988795518207285,-0.0624547662367353,0.18025282056201414
7.202881152460985,-0.026233171331423777,0.17339156605857056
7.206882753101241,-0.03993117708124036,0.1686235820199056
7.210884353741497,-0.049111583763776986,0.16517854152033712
7.214885954381753,-0.052185448171911335,0.1621791857391476
7.218887555022009,-0.04609428326356691,0.15653817634963232
7.222889155662265,-0.03125600843238822,0.1468922486568687
7.226890756302521,-0.047911583600736635,0.1438134031376385
7.230892356942777,-0.019970380115617716,0.12971252630100888
7.234893957583034,-0.033919448095230474,0.12026848372074159
7.238895558223289,-0.03163631194345001,0.11195214330127486
7.242897158863546,-0.03149868667308036,0.10987162576894902
7.246898759503802,-0.022911243023123553,0.10212223856708542
7.250900360144058,-0.006183909315170802,0.09620491398677802
7.254901960784314,-0.007150477684082565,0.09222031217019426
7.25890356142457,-0.003128431533823671,0.08589753937584182
7.262905162064826,-0.015609872351711108,0.07959040067088698
7.266906762705083,0.022849407007820954,0.07539219609891265
7.270908363345338,-0.009268777788585718,0.07342686199344721
7.2749099639855945,0.0034151902891812877,0.0672779011608773
7.278911564625851,-0.010001758408059891,0.06416026983111672
7.282913165266106,0.0009037872732522555,0.059062918349092296
7.286914765906363,-0.01166916961730372,0.051912604491303464
7.290916366546619,-0.01143384273538622,0.046225155198224635
7.294917967186875,-0.015062042047831908,0.04261061046273389
7.298919567827131,0.00282188345155136,0.03919162780620409
7.302921168467387,-0.01740436209783614,0.03227250281611728
7.3069227691076435,-0.004779040335905086,0.030722396516702367
7.3109243697479,0.0036175083097295642,0.02558850887196474
7.314925970388155,0.025042944002440844,0.022483647035587962
7.318927571028412,0.013744809453127544,0.019363592739514525
7.322929171668668,0.00592968225728102,0.01814305330747363
7.326930772308923,-0.0008269532066185236,0.01762026313418004
7.33093237294918,0.02177629163352198,0.019214727373020712
7.334933973589436,-0.021311663404250513,0.019471394661341648
7.3389355742296924,0.013996088937710295,0.017606599347435952
7.342937174869948,-0.010212665337487527,0.017947691186720217
7.346938775510204,0.011087431464824035,0.01864370765550913
7.350940376150461,0.0036305796484665523,0.019034707530308715
7.354941976790717,-0.008204334602642986,0.01760803855280339
7.358943577430972,0.013989509053170611,0.020853682879830988
7.362945178071229,0.006000295490469765,0.022353076757911768
7.366946778711485,0.027659003296569052,0.02275150234726513
7.370948379351741,-0.0013399076969505825,0.021997431262268333
7.374949979991997,0.021051871281869552,0.023282712058286144
7.378951580632253,0.026714379527089344,0.021140908751079598
7.3829531812725095,-0.009728716821838334,0.02167353706981645
7.386954781912765,0.011757782615692951,0.02328636822758368
7.390956382553021,0.005662436728736227,0.02032526384606514
7.394957983193278,0.010478470287290405,0.022488900922557516
7.398959583833534,0.01906884760589647,0.02177519759750622
7.4029611844737895,0.0008746601024073329,0.024920143191121045
7.406962785114046,-0.0019605793818359106,0.025688008737175413
7.410964385754302,-0.004341624516097383,0.023886877247797006
7.4149659863945585,0.0050838082520815306,0.023538823842665906
7.418967587034814,0.004332274610561659,0.02283126985605452
7.42296918767507,0.015849041001104878,0.02273657727115301
7.426970788315327,0.007281189064635252,0.025137205674448108
7.430972388955582,-0.02617819009805064,0.023997451860050475
7.434973989595838,-0.0010239706653256365,0.022126970643512982
7.438975590236095,-0.0026201453877006506,0.021869049699027546
7.442977190876351,-0.019899636353478627,0.018358639426115972
7.446978791516607,-0.009003503580080235,0.018823948165781812
7.450980392156863,-0.01271992214613035,0.01801491556031285
7.454981992797119,-0.006355165415030263,0.014993082468708898
7.458983593437376,-0.022480167421495095,0.01755095184077885
7.462985194077631,0.001578481369310602,0.015881859562115627
7.466986794717887,-0.010163163697423802,0.0154087876459831
7.470988395358144,0.0019141617125774735,0.016873765382670637
7.4749899959984,0.00600317731271111,0.015308618902253308
7.4789915966386555,0.005126712582870032,0.01715054006757092
7.482993197278912,0.00372247201156031,0.017833891858140993
7.486994797919168,0.034168062361670457,0.020654409121680806
7.490996398559424,0.000519261435648875,0.02010933584656875
7.49499799919968,-0.022797227758017673,0.021016030690639526
7.498999599839936,-0.00444049558475515,0.018849177057267526
7.503001200480193,-0.015336242746040273,0.01865044807291035
7.507002801120448,-0.019784960246449563,0.015376973678397776
7.5110044017607045,0.017454851636160833,0.015796586746130763
7.515006002400961,0.014177171146748557,0.02070224233918963
7.519007603041217,-0.025437693437902264,0.017688621988607548
7.523009203681473,-0.01856977999460494,0.0198335262058477
7.527010804321729,-0.019520747231331185,0.018546087315614704
7.531012404961985,0.005923106379662463,0.01994263188864993
7.535014005602241,0.008376763548968854,0.01952353105978621
7.539015606242497,-0.005211149744703682,0.02199228374039297
7.5430172068827535,-0.003524309054525668,0.022616456110017474
7.54701880752301,0.009110623397034586,0.02627433136916858
7.551020408163265,0.016591021827749953,0.028228419963450296
7.555022008803522,-0.015697439620309197,0.030466671593127423
7.559023609443778,0.0025344434576075312,0.030808867063752802
7.563025210084034,0.007934302134111167,0.026798357292943636
7.56702681072429,0.016181263478174217,0.027527939158659632
7.571028411364546,0.006523022199890802,0.02453102809444057
7.575030012004802,-0.026938380602031194,0.025257226234289595
7.579031612645059,-0.01058368902088822,0.0254523425719331
7.583033213285314,-0.006060561321017616,0.024816739009329784
7.5870348139255706,-0.011411021786876202,0.022496637054825658
7.591036414565827,-0.016599783910972152,0.021525879926428005
7.595038015206082,-0.002487631249478616,0.02008651841672312
7.599039615846339,0.0013465160171506022,0.018213264952710705
7.603041216486595,-0.022682227253820388,0.019366696244616875
7.607042817126851,-0.03771326751732818,0.020091410124132493
7.611044417767107,-0.041767409998885154,0.01973124401796518
7.615046018407363,-0.029899033335802228,0.020695315179463034
7.6190476190476195,-0.006298735811209581,0.022728532663024697
7.623049219687876,-0.018821724354952125,0.021698666935336546
7.627050820328131,-0.010416507968863595,0.019328168266442187
7.631052420968388,-0.03945044010291482,0.020414292670438008
7.635054021608644,-0.011581318503264389,0.025884549079068547
7.6390556222488994,-0.034365027878291855,0.03114554856009093
7.643057222889156,-0.02990647274328256,0.03327864199005945
7.647058823529412,-0.000697996646090537,0.03324376578007104
7.6510604241696685,-0.0029251789098313943,0.03198163743897413
7.655062024809924,0.007638501787988829,0.03195564102648214
7.65906362545018,-0.028293839740628303,0.0371477190243139
7.663065226090437,-0.018764111836596188,0.03717419991812121
7.667066826730693,-0.013273368214254287,0.0399366697351378
7.671068427370948,-0.06039300970455034,0.04420026004572015
7.675070028011205,-0.0341258369809456,0.04409941621877357
7.679071628651461,-0.0636246590549479,0.04102722369363812
7.6830732292917165,-0.05882069823770967,0.03635064099463454
7.687074829931973,-0.08218838351961477,0.034255520250199144
7.691076430572229,-0.06608423052756894,0.03252405601514611
7.695078031212486,-0.09530991920741776,0.03360860129544961
7.699079631852741,-0.0690794187497729,0.040072876215856215
7.703081232492997,-0.09667492095271638,0.04375964268515306
7.707082833133254,-0.09806749969749798,0.047518698869677696
7.71108443377351,-0.07831848163301643,0.05486435429276385
7.7150860344137655,-0.07305405273833736,0.06230081712719669
7.719087635054022,-0.08744506441828186,0.06792640628939871
7.723089235694278,-0.06865855531008373,0.08263842380440559
7.7270908363345345,-0.1062755402677693,0.09292531269609174
7.73109243697479,-0.0834784137224269,0.10677034747356273
7.735094037615046,-0.06342099024945294,0.1176200509737344
7.739095638255303,-0.10051230829398929,0.12688066959156458
7.743097238895558,-0.08063855750675542,0.13617647982316963
7.7470988395358145,-0.07402651380127827,0.14038303531840723
7.751100440176071,-0.0972238970950926,0.14575282321770466
7.755102040816327,-0.10170958600660608,0.15238497373791815
7.759103641456583,-0.10750186602231251,0.15621921293600732
7.763105242096839,-0.10837905373568515,0.1533009103476346
7.767106842737095,-0.09544390673817063,0.1586544267903353
7.771108443377352,-0.04714586005488084,0.15637305120398431
7.775110044017607,-0.09313574194179246,0.1571423173501085
7.779111644657863,-0.06370237681016125,0.1572276823485496
7.78311324529812,-0.07980436523339336,0.15779402151723138
7.787114845938375,-0.06062341294022836,0.16233199570335152
7.791116446578632,-0.022215124436199236,0.16782498241497604
7.795118047218888,-0.020331584723613932,0.16906879086029858
7.799119647859144,-0.012750812528644656,0.16572359777235135
7.8031212484994,-0.005476346143854491,0.16368037808204092
7.807122849139656,0.03532660386422086,0.16060523286192255
7.811124449779912,0.058779725210778115,0.16315282404486697
7.815126050420169,0.05407623985287879,0.15695015834257753
7.819127651060424,0.06571020905302127,0.14786539875465443
7.8231292517006805,0.09938247457782368,0.13951591471847916
