time,ecg_signal,mechanical_signal
# Condition: bradycardia
# Heart Rate: 49.93 bpm
# Duration: 10.0 s
# Sampling Rate: 250 Hz

0.0,-0.01397076712655738,0.0
0.004001600640256103,-0.01731638125053155,0.0
0.008003201280512205,0.0047855433728187955,0.0
0.012004801920768308,0.0013616537663754741,0.0
0.01600640256102441,-0.0006639903722008984,0.0
0.020008003201280513,-0.016965740734028237,0.0
0.024009603841536616,-0.007674814022552033,0.0
0.028011204481792718,0.005575978504281561,0.002185522547028968
0.03201280512204882,-0.002804684477765146,0.0048944175785727425
0.03601440576230493,-0.03122157711268936,0.005643045971440227
0.040016006402561026,0.003605200331039513,0.005856056823364278
0.044017607042817125,-0.014816826862186484,0.005959928422991521
0.04801920768307323,-0.017236191227386326,0.008613970864997593
0.05202080832332934,-0.015533969964957752,0.009814583468342505
0.056022408963585436,-0.0011691681768763928,0.010686863897359945
0.060024009603841535,-0.0058532404557517966,0.011125615836171221
0.06402561024409764,-0.005398575020431439,0.01600977574775372
0.06802721088435375,-0.0006032698312918214,0.016573756704466206
0.07202881152460985,0.014810865733391737,0.018891632944860785
0.07603041216486595,0.007316157991723927,0.019402460871010038
0.08003201280512205,0.0028702693470532784,0.019123628648168436
0.08403361344537816,-0.01631294859817682,0.018557899546992298
0.08803521408563425,-0.010950825774640169,0.01926054270843379
0.09203681472589036,-0.012800542166069134,0.02000119935282486
0.09603841536614646,0.001243250016544442,0.01744152966832645
0.10004001600640257,0.0036987070451910374,0.018557860773807267
0.10404161664665867,0.022433533099634057,0.01883008644840555
0.10804321728691477,9.279752139867376e-05,0.01884034624368198
0.11204481792717087,-0.005221532906021913,0.016508108975063565
0.11604641856742698,0.013713143119860468,0.017657224831307522
0.12004801920768307,0.010278353512727234,0.017341806527883277
0.12404961984793918,0.011678756015754964,0.014839944368634997
0.12805122048819528,0.0003495573406166322,0.01298849027689824
0.13205282112845138,0.011999403351950459,0.01631498971432682
0.1360544217687075,-0.008246110372601636,0.015413852518362064
0.1400560224089636,-0.0037179845326798227,0.015386156864336009
0.1440576230492197,0.005291719018620233,0.017437005139259613
0.1480592236894758,0.02458752029430891,0.016727959775951238
0.1520608243297319,0.018632713583966794,0.0174104245439037
0.156062424969988,-0.012130733671158463,0.01701609595230034
0.1600640256102441,0.008918052713559148,0.016341304775276375
0.1640656262505002,-0.015691498761340482,0.01591819153883748
0.16806722689075632,-0.007451854216416277,0.01449735800030338
0.1720688275310124,0.00605785432369248,0.015130681868980934
0.1760704281712685,-0.003927897830369556,0.018398431730034852
0.18007202881152462,-0.005801111953537885,0.017803849007881546
0.1840736294517807,-0.010736258269382777,0.01968700836746913
0.18807523009203683,0.01851415776254142,0.02026527492303676
0.19207683073229292,0.003581707673800336,0.020574759779618288
0.19607843137254902,0.0010491065258455608,0.02013259523093675
0.20008003201280514,-0.006559104164749698,0.019253287225058976
0.20408163265306123,0.015705069216502252,0.019813066351749554
0.20808323329331735,-0.013827856143170423,0.01884343415606751
0.21208483393357344,0.010042958213897002,0.019232981438944093
0.21608643457382953,0.014003479393411162,0.021547626720099633
0.22008803521408565,0.010842601525937048,0.021280120410966837
0.22408963585434175,0.005094656979068258,0.017597879232207004
0.22809123649459784,0.001806058696844047,0.015709139310434182
0.23209283713485396,-0.006681076460554171,0.016268291922043196
0.23609443777511005,-0.000692578660281049,0.0170363589866282
0.24009603841536614,-0.00845242389292055,0.01615272728534688
0.24409763905562226,0.014064635996098982,0.01717763339209789
0.24809923969587835,0.009929933121142244,0.01792613723570294
0.25210084033613445,-0.014682733983422298,0.018108659670107132
0.25610244097639057,0.010710487128694423,0.017483691914937243
0.2601040416166467,0.006572464392790245,0.016849317925648612
0.26410564225690275,-0.0026690971088321144,0.014061392065971921
0.26810724289715887,0.0019226487707707668,0.014823344507139699
0.272108843537415,0.004066323693235466,0.016859434069085494
0.27611044417767105,-0.016842114370627836,0.017386751046001517
0.2801120448179272,0.010604880853002199,0.017226821624640603
0.2841136454581833,-0.007407475054126433,0.01673915475518176
0.2881152460984394,0.015635634939446225,0.01619624666526483
0.2921168467386955,-0.001339875632622746,0.01442314803616347
0.2961184473789516,-0.015898222178421444,0.013027751656834308
0.3001200480192077,0.01969087008346349,0.012866883927690377
0.3041216486594638,0.0034546719964010115,0.015219055314970165
0.3081232492997199,-0.012837855182863537,0.015832877225545498
0.312124849939976,0.020605041387253734,0.01688332473045133
0.3161264505802321,0.0012488339800016358,0.01800703322548498
0.3201280512204882,0.012690218622812974,0.016016430245133766
0.32412965186074433,0.020781304495234305,0.01695008193252569
0.3281312525010004,0.011327264429688365,0.017733531707765548
0.3321328531412565,-0.0024160124071216237,0.016598465363516147
0.33613445378151263,-0.018333101226477532,0.017578594279388144
0.3401360544217687,-0.0031383848593167637,0.020384410901170533
0.3441376550620248,-0.005988161089892207,0.020279002414692493
0.34813925570228094,0.0017405597502729848,0.021628084869583057
0.352140856342537,-0.007424511506327786,0.022244313653326495
0.3561424569827931,-0.0030536913693142145,0.022357320017268378
0.36014405762304924,-0.0018207444468704354,0.021576478560327562
0.36414565826330536,-0.004305196370516609,0.02199845777855895
0.3681472589035614,-0.015515286642083253,0.022279808289262654
0.37214885954381755,-0.002481561781882486,0.020729523916528134
0.37615046018407367,0.027114544165420675,0.017921459935218178
0.38015206082432973,-0.015813294895607965,0.01854248336782115
0.38415366146458585,-0.006088682091195386,0.01701189378568657
0.38815526210484197,0.010243262307935456,0.014073364775690024
0.39215686274509803,0.01218276138139834,0.014551488049512555
0.39615846338535415,0.018525978078679617,0.01499342869579739
0.4001600640256103,-0.000732342536940205,0.012130701120241933
0.40416166466586634,0.002024207935333606,0.014600390544318585
0.40816326530612246,0.009234702790457815,0.016696199792462448
0.4121648659463786,0.015630185938396254,0.01478073918439301
0.4161664665866347,0.016275725879863527,0.01589219353168626
0.42016806722689076,0.003843605466330493,0.01686124830758209
0.4241696678671469,0.017114222653614102,0.01948708194189346
0.428171268507403,-0.006128461293571687,0.01844018981072899
0.43217286914765907,0.0171588296549656,0.01827914215769923
0.4361744697879152,-0.018530994359184143,0.01943894769850181
0.4401760704281713,-0.008411997832840655,0.021210576974207
0.44417767106842737,-0.017952082122562617,0.02132953659072334
0.4481792717086835,0.037089783364401836,0.02154260843963713
0.4521808723489396,0.005689196101980313,0.019978204141461862
0.4561824729891957,0.006362539373823538,0.018463153320720727
0.4601840736294518,-0.0038771620422740492,0.020194916285516448
0.4641856742697079,-0.007913074121479964,0.02149141096599159
0.468187274909964,-0.0053920797060626816,0.0209015300610825
0.4721888755502201,-0.020107663267617277,0.020811752417494257
0.4761904761904762,-0.012699805190415102,0.026499343224848093
0.4801920768307323,-0.02013144454182083,0.02707267711555296
0.4841936774709884,-0.017883134889295375,0.02662336908193227
0.4881952781112445,0.01816715315349367,0.024784780084774253
0.49219687875150064,-0.00121010513513006,0.023476565309928005
0.4961984793917567,0.01804268010434643,0.023718801497373647
0.5002000800320128,-0.00711001756115329,0.024187081577904078
0.5042016806722689,0.0011727914312057888,0.025215072390486714
0.508203281312525,-0.005409639561208069,0.025680094590055578
0.5122048819527811,-0.009885917966727916,0.025578746434587678
0.5162064825930373,0.010423363172140428,0.027104798061525815
0.5202080832332934,-0.01782872583186557,0.024485760190776456
0.5242096838735495,0.0047870320898462165,0.02150611896897779
0.5282112845138055,-0.0036721878697542963,0.021728385742605584
0.5322128851540616,0.005453301143561039,0.020916525446084903
0.5362144857943177,0.007149680864035144,0.021156259180110045
0.5402160864345739,-0.018092866372120896,0.021464881796641994
0.54421768707483,0.0010393797620917773,0.02225195263935216
0.5482192877150861,-0.026147922275479126,0.021895446149480476
0.5522208883553421,-0.006573872764597859,0.020657608322526517
0.5562224889955982,0.008235637792012598,0.018082797917465927
0.5602240896358543,-0.006909894401310419,0.01613833190060104
0.5642256902761105,0.005377812576087088,0.014414809213424739
0.5682272909163666,-0.020324714895461195,0.017055870724600488
0.5722288915566227,0.01145414316610904,0.01439595263024886
0.5762304921968788,-0.007206801653720947,0.01737415487386474
0.5802320928371348,0.0074352802205572555,0.018219075193954163
0.584233693477391,-0.011311058256363724,0.018661161358252663
0.5882352941176471,0.007149349783813008,0.01819560592068864
0.5922368947579032,-0.00609714553354087,0.01740630319379054
0.5962384953981593,-0.02183672802961053,0.01779676424193559
0.6002400960384154,-0.004271544629813621,0.018839736431560047
0.6042416966786714,0.01655239549375439,0.019392675153530003
0.6082432973189276,0.00853773363812717,0.01970272684369673
0.6122448979591837,0.005097644567047528,0.020353713581593335
0.6162464985994398,0.0017203688873142957,0.018641760184126173
0.6202480992396959,-0.00025169196368455844,0.01943297379687624
0.624249699879952,0.02198211636279011,0.018758550399534203
0.6282513005202081,-0.006692837373049635,0.018398384776297592
0.6322529011604642,0.008242684141737903,0.019699420096024697
0.6362545018007203,-0.004591616185273144,0.019954071778553895
0.6402561024409764,-0.007126065810987942,0.019910243583926828
0.6442577030812325,-0.0007299720188243771,0.016999865270037294
0.6482593037214887,0.014201531061232857,0.015247405332576182
0.6522609043617448,-0.009978141223413051,0.01755878760268325
0.6562625050020008,-0.0014928345107966718,0.017442643258681993
0.6602641056422569,-0.005026762860607385,0.01696264092599067
0.664265706282513,0.005481472504211903,0.016562520846809314
0.6682673069227691,0.00980364711135105,0.016723480402221363
0.6722689075630253,-0.015899575124874128,0.013421636578017605
0.6762705082032814,-0.00265403652980108,0.014975037979741939
0.6802721088435374,0.002357861297341127,0.013946591881716323
0.6842737094837935,-0.0006107908264261859,0.0128445202671192
0.6882753101240496,-0.0013116565626338729,0.012833431859002915
0.6922769107643058,0.002043282990621745,0.013421801608636517
0.6962785114045619,-0.015388109347985821,0.014916065535185746
0.700280112044818,0.0005291150597559818,0.013964540762188216
0.704281712685074,0.013639426258259797,0.013332729335806336
0.7082833133253301,0.010630709721258406,0.012412134718832749
0.7122849139655862,0.021879286074909722,0.011789392710557033
0.7162865146058424,0.011910865147719265,0.010879813272662348
0.7202881152460985,0.013053954490536162,0.01108526160016811
0.7242897158863546,0.02246284675399767,0.011270884449366131
0.7282913165266107,-0.0010691362783966057,0.009792722259626165
0.7322929171668667,0.010906458452613626,0.011692879201128216
0.7362945178071229,0.025767039813644754,0.01256953487116822
0.740296118447379,0.005429927777809658,0.01513473340007453
0.7442977190876351,-0.009532102020277159,0.015464376896975602
0.7482993197278912,0.0035689688768491498,0.015019221094126784
0.7523009203681473,-0.0038610313586964276,0.018118020249722443
0.7563025210084033,0.003222285598731592,0.017916418035591367
0.7603041216486595,-0.0015408625292824213,0.019527024921377572
0.7643057222889156,0.014979291051048196,0.023352712588142744
0.7683073229291717,-0.0002491012372080991,0.02388250372087929
0.7723089235694278,0.008918575388910242,0.022966416870791772
0.7763105242096839,0.016747499117176812,0.02344195761932376
0.7803121248499401,-0.0006838470989030985,0.021912270499557494
0.7843137254901961,0.0007234206756567251,0.020753330706841513
0.7883153261304522,0.0048849960052132595,0.017571681279338204
0.7923169267707083,-0.008579826030534648,0.018051691713616026
0.7963185274109644,0.0049927800921479104,0.01604855936998489
0.8003201280512205,-0.002523197942015871,0.013929755858099885
0.8043217286914767,-0.008060749343883405,0.01638240682380951
0.8083233293317327,-0.003702659891900995,0.014783228525247886
0.8123249299719888,-0.009475033142396127,0.010865519942071022
0.8163265306122449,0.010181843949345978,0.010780273322124292
0.820328131252501,0.001485995279234371,0.010631303646535018
0.8243297318927572,-0.002440762955773306,0.010854038123858952
0.8283313325330133,0.008584792958799933,0.010644753617873157
0.8323329331732694,-0.0001021557538817982,0.011401660630367126
0.8363345338135254,-0.009589222761489106,0.011739842266014709
0.8403361344537815,-0.0017165991047794038,0.01087878147707964
0.8443377350940376,0.006114145364871475,0.012432614058681353
0.8483393357342938,0.01632537617866433,0.011269895414447645
0.8523409363745499,0.023155858330468956,0.009031815416986052
0.856342537014806,-0.024025130978600366,0.01026780304481181
0.860344137655062,0.002439385393273547,0.01017061521812216
0.8643457382953181,-0.01044029831211285,0.010906522813535015
0.8683473389355743,0.006615988749070386,0.00983287116250284
0.8723489395758304,-0.005867753744669546,0.010008292387750658
0.8763505402160865,-0.008969744515791278,0.012167441664311596
0.8803521408563426,0.0068209841358997676,0.014528851080214714
0.8843537414965986,-0.007163136596647526,0.017708004978420903
0.8883553421368547,0.007873564559658906,0.01660738060687646
0.8923569427771109,-0.015836447874046852,0.0166478120185583
0.896358543417367,-0.010028142025293525,0.017450324600213556
0.9003601440576231,0.012099950066759298,0.017986427275875218
0.9043617446978792,0.0066665549251443456,0.018046647326764136
0.9083633453381353,0.0029554833026953216,0.019097709933813465
0.9123649459783914,0.0023712196740215226,0.01871818417361257
0.9163665466186475,0.029822931710286396,0.019681351528777948
0.9203681472589036,-0.016843784469604918,0.02120226381300375
0.9243697478991597,-0.0023476250274635487,0.020217153467849483
0.9283713485394158,0.00694679166731806,0.018487618033657793
0.932372949179672,-0.015303537743871528,0.0157721222412307
0.936374549819928,-0.0061043917496227135,0.015852858224251396
0.9403761504601841,-0.00425407032779666,0.014590568677976213
0.9443777511004402,-0.005353695837688756,0.01822095608833818
0.9483793517406963,-0.011530368918561075,0.01993799584778195
0.9523809523809524,-0.00021724791585914474,0.01890206193522331
0.9563825530212086,-0.000443565183040018,0.01892174268675327
0.9603841536614646,0.009997849694607595,0.02019518959829037
0.9643857543017207,-0.005259775204628018,0.019918428341667987
0.9683873549419768,-0.00394087636745984,0.018106534474550795
0.9723889555822329,0.011654839225217815,0.017375285614317216
0.976390556222489,-0.0001640942857974762,0.01728618295943268
0.9803921568627452,0.009633305564651666,0.016277283036198614
0.9843937575030013,-0.030312061767957105,0.015884330119793507
0.9883953581432573,0.005724953110117014,0.017077405039505965
0.9923969587835134,0.002237875616966053,0.013234857820515415
0.9963985594237695,0.002260060378579378,0.011216386227364632
1.0004001600640255,-0.010990430861330515,0.012672364005460523
1.0044017607042817,0.006375807522949724,0.011611310025911412
1.0084033613445378,0.007121784795985007,0.010724284985531407
1.012404961984794,-0.010776576651483969,0.014511221533599399
1.01640656262505,0.025961162749658418,0.01474131967035003
1.0204081632653061,-0.02632169431191195,0.014253895087061865
1.0244097639055623,-0.007742225552314213,0.012803690660310556
1.0284113645458184,-0.0113770774800389,0.014488997846187146
1.0324129651860745,0.001366678577137674,0.015417010550920231
1.0364145658263306,0.0033974163595016323,0.014967092187403195
1.0404161664665867,-0.003082960531376401,0.015830115229757552
1.0444177671068429,0.012279586518438896,0.01927486754323977
1.048419367747099,0.010916577743786564,0.021569282888911297
1.0524209683873549,0.018646000848610185,0.022754770886620035
1.056422569027611,-0.017215704544838267,0.023027558544121685
1.0604241696678671,-0.006737145687116823,0.018499475939718728
1.0644257703081232,0.005100835448550754,0.018135366796575212
1.0684273709483794,0.008962563088693918,0.01826756799339331
1.0724289715886355,-0.021046741359009174,0.019834976575244398
1.0764305722288916,-0.015513305386073697,0.01982342333324283
1.0804321728691477,-0.027730403477025826,0.021742915937099823
1.0844337735094038,-0.007074383755552137,0.02332196231294875
1.08843537414966,-0.005947240255435247,0.022690052313317485
1.092436974789916,0.015255781645496885,0.019426758662941603
1.0964385754301722,-0.00018012296380990966,0.0167111760223106
1.1004401760704283,0.01437597719555761,0.018792473277459986
1.1044417767106842,0.005626688263433771,0.019439525745402527
1.1084433773509403,-0.006991979181237724,0.023563745601794386
1.1124449779911965,0.0010985459206006793,0.024138953468045538
1.1164465786314526,-0.0005765122085798634,0.024587028213062852
1.1204481792717087,-0.010961274309793623,0.02505261048894077
1.1244497799119648,0.007359097904190215,0.023373048888333223
1.128451380552221,0.033292983381832994,0.022705066029156257
1.132452981192477,0.0036206777996640417,0.020892133628848144
1.1364545818327332,-0.01585198667730801,0.020931998608494158
1.1404561824729893,0.012578345555509681,0.020305898844334088
1.1444577831132454,0.01946717258912615,0.018994023618514787
1.1484593837535015,-0.002023259879415552,0.017416299544116748
1.1524609843937577,-0.0027719850586788446,0.016140692833091417
1.1564625850340136,-0.023492762726562304,0.017010877246837496
1.1604641856742697,0.0208407489179647,0.016470595373335135
1.1644657863145258,-0.0018202523641499858,0.018020048344064135
1.168467386954782,-0.0027098918027792674,0.01760120255772412
1.172468987595038,0.008290204474747712,0.02061837988520723
1.1764705882352942,0.006816503908924262,0.01868597760787028
1.1804721888755503,0.004149684210964718,0.018239400969483125
1.1844737895158064,0.0206329057845225,0.020820707647582336
1.1884753901560625,0.0018100362632525104,0.02390908707498992
1.1924769907963186,-0.019850800268219573,0.024103652064014516
1.1964785914365748,0.007419505876660651,0.02281284373904002
1.2004801920768309,0.008336554880185911,0.022958501768066353
1.2044817927170868,-0.005402307705327643,0.018816643104915726
1.208483393357343,0.0066899118492750554,0.01889939843459428
1.212484993997599,0.024308078340704368,0.01964730342862116
1.2164865946378551,0.00012780162953473682,0.017962758654635733
1.2204881952781113,0.02213971504366436,0.01802277160415583
1.2244897959183674,-0.00046606683951005686,0.018866935506499826
1.2284913965586235,0.01541908388698154,0.019737431213661293
1.2324929971988796,0.001423159687224513,0.01690744364198638
1.2364945978391357,-0.0012861688483213364,0.014693751781489708
1.2404961984793919,0.001679058327374312,0.01821164383854056
1.244497799119648,-0.005611358373563942,0.01780771352884693
1.248499399759904,-0.010832988777488438,0.019974267257750294
1.2525010004001602,-0.0020561468202556833,0.018980834093131126
1.2565026010404161,0.020703777899072323,0.020743767141853758
1.2605042016806722,-0.025179227115360858,0.017738682822715738
1.2645058023209284,0.012651529739875102,0.01765673141399106
1.2685074029611845,-0.008153127936172268,0.014814027690513019
1.2725090036014406,-0.010449140172192012,0.014531169412182687
1.2765106042416967,-0.006398163852310754,0.014921700048066713
1.2805122048819528,0.009150307509516134,0.01439824203076074
1.284513805522209,-0.003422606206226035,0.016590506775096422
1.288515406162465,-1.0428467065205965e-05,0.016726785282323794
1.2925170068027212,0.004452178346331009,0.01868593970169561
1.2965186074429773,0.0022750754263760505,0.016497942349617413
1.3005202080832334,0.014619498387598608,0.018059648421987998
1.3045218087234896,-0.002320210949998386,0.016648457185878936
1.3085234093637454,0.0037205603664789972,0.017857256648131915
1.3125250100040016,-0.006376133482968003,0.01819147108129213
1.3165266106442577,-0.006981014696594337,0.017930438301251083
1.3205282112845138,-0.006082726979151346,0.017749101509746814
1.32452981192477,0.012750631529189933,0.01641034090949156
1.328531412565026,0.002901113626055486,0.01837569384021825
1.3325330132052822,-0.016973598145701707,0.015499853186798236
1.3365346138455383,-0.019745850113024564,0.012142958065433583
1.3405362144857944,0.013720196713152298,0.011161263940352903
1.3445378151260505,-0.0009160415493961475,0.010977903936599124
1.3485394157663066,-0.004399405043737634,0.010294842341155679
1.3525410164065628,0.0006672968467887021,0.011288593164666346
1.3565426170468189,0.008803854547351333,0.010310998018362865
1.3605442176870748,-0.0010410641752643405,0.012430852865992105
1.364545818327331,-0.014961810720443926,0.015518171449978567
1.368547418967587,-0.012685616410726921,0.01696801761257492
1.3725490196078431,0.0005170028848964102,0.01675541660409704
1.3765506202480993,-0.0032103668106324597,0.015156632211414023
1.3805522208883554,-0.003004277838046038,0.014898057932124818
1.3845538215286115,0.017068785482962194,0.01569326509182036
1.3885554221688676,0.011134057130715667,0.014858671389389809
1.3925570228091237,0.02220247574867407,0.016107150409572318
1.3965586234493799,-0.024277507543536483,0.0171400760605064
1.400560224089636,0.0071284423586506,0.015226303467213497
1.404561824729892,-0.005105135944781662,0.015274681612916655
1.408563425370148,-0.009194250862277396,0.013089385399581648
1.4125650260104041,0.01951785314237016,0.012670597722723649
1.4165666266506602,-0.014214910583412519,0.012266033942082338
1.4205682272909164,-0.009654532183144894,0.015595985795616255
1.4245698279311725,-0.0015940831716539058,0.01870562471607893
1.4285714285714286,-0.0015939784947828807,0.01971637660020176
1.4325730292116847,0.012705439409437911,0.019137766075253197
1.4365746298519408,0.007552774510221656,0.020413213097824415
1.440576230492197,0.025630062351045955,0.021125939417584772
1.444577831132453,0.010654245240712335,0.021365175163565463
1.4485794317727092,0.006601163325331686,0.022794608216493373
1.4525810324129653,0.0023404743488969096,0.022541764238536946
1.4565826330532214,0.013118753070624562,0.022321143496322825
1.4605842336934773,0.004956275353849125,0.02163856170694849
1.4645858343337335,0.00847880127507265,0.02107832232685789
1.4685874349739896,0.007032851334132087,0.021614518208839074
1.4725890356142457,0.003520019946701577,0.019483357717994306
1.4765906362545018,0.009320912187024404,0.019400872611381688
1.480592236894758,0.00530362501601309,0.018968381668115916
1.484593837535014,-0.006089976465327884,0.019582312741800723
1.4885954381752702,-0.008802590058764152,0.01730436649240453
1.4925970388155263,0.0067351243232930185,0.016407035936964322
1.4965986394557824,-0.0073848250726569874,0.015996912244061325
1.5006002400960385,0.0015461328003143222,0.01629819693429266
1.5046018407362947,-0.014434301731985667,0.01750696289902555
1.5086034413765508,-0.020552179195183047,0.01634905710192708
1.5126050420168067,-0.010790910841672155,0.016120223704311567
1.5166066426570628,-0.010209925857092907,0.013487811341329927
1.520608243297319,-0.020525154499335344,0.012874722092045201
1.524609843937575,0.01776414915288491,0.01299731453113667
1.5286114445778312,0.00352274663216592,0.01287305139306109
1.5326130452180873,0.0044899830054514495,0.013078849774429357
1.5366146458583434,0.013798997254990463,0.015518601233870522
1.5406162464985995,-0.006124772606536284,0.015880297019308022
1.5446178471388556,0.026408277636322936,0.016377303943882905
1.5486194477791118,0.01818852381202667,0.019037508973669307
1.5526210484193679,0.021228779434444053,0.020358330127700216
1.556622649059624,0.009792452976937682,0.020079737704953735
1.5606242496998801,-0.0040534527884765114,0.019829442087685046
1.564625850340136,0.0026442906436249672,0.020611057047162307
1.5686274509803921,-0.014229903308080044,0.020515576432067525
1.5726290516206483,0.0035767462086929414,0.023491517847710672
1.5766306522609044,-0.0011434107206479511,0.026094976946490475
1.5806322529011605,-0.015726479060498705,0.027157873785260384
1.5846338535414166,0.006040898971361006,0.02547467170789324
1.5886354541816727,-0.01041960120892198,0.024420694760776993
1.5926370548219289,0.0004035944747276934,0.0232371615881283
1.596638655462185,-0.016631135920197472,0.022252361448446223
1.600640256102441,0.001485677398072422,0.020032949390580413
1.6046418567426972,-0.013038311183463436,0.019660737024969278
1.6086434573829533,-0.007016727373981454,0.021418522782576364
1.6126450580232095,-0.00849042221729948,0.020204881572516552
1.6166466586634654,-0.02881175128074123,0.02087674480387025
1.6206482593037215,-0.004674623063056662,0.016808691785509207
1.6246498599439776,-0.013924306207596207,0.016565061187330213
1.6286514605842337,0.00975053913888,0.013476541118395649
1.6326530612244898,0.005670326686093374,0.013984308246038631
1.636654661864746,-0.004026252293868461,0.014447869291827448
1.640656262505002,0.0008616550194840755,0.01536241122438001
1.6446578631452582,-0.008550010124607854,0.017643528448144992
1.6486594637855143,-0.010208458930675974,0.01781527525326581
1.6526610644257704,0.017577483297584434,0.01981465975412459
1.6566626650660266,0.006174894366690895,0.018879811200707575
1.6606642657062827,-0.00893104880785545,0.01882184057694584
1.6646658663465388,-0.0008837855952255504,0.017821694480579277
1.6686674669867947,-0.01887803931735827,0.017893351365229973
1.6726690676270508,-0.0114275640268262,0.01662917721704985
1.676670668267307,0.012670421976442704,0.017993729037262644
1.680672268907563,0.01474925458682295,0.01870381624366941
1.6846738695478192,0.01044752049452007,0.018572123760243118
1.6886754701880753,0.009208314387334295,0.0186410533572908
1.6926770708283314,-0.0005394827390004244,0.01427213086753584
1.6966786714685875,-0.008628923026455586,0.016494047973977733
1.7006802721088436,0.014973312702300437,0.016103469111646087
1.7046818727490998,0.005432638152819303,0.01656024215197868
1.708683473389356,-0.011168082698023416,0.017980507871831405
1.712685074029612,-0.0018301096866460997,0.018985021532814773
1.716686674669868,-0.004271805901818879,0.020290734531647238
1.720688275310124,-0.01159884827017384,0.019037604473988612
1.7246898759503801,-0.008133644000339654,0.0187905091426268
1.7286914765906363,0.019902140901132626,0.018383124673274076
1.7326930772308924,-0.0017353200006720566,0.018267009525380372
1.7366946778711485,-0.012308681641113834,0.018616960817327412
1.7406962785114046,-0.0012893877525444381,0.01876499940532054
1.7446978791516607,-0.010072666415678999,0.016480067435039002
1.7486994797919169,-0.005851924784211971,0.016506862354200985
1.752701080432173,0.011478355976717033,0.015797149675733275
1.756702681072429,0.020605953451583815,0.016603243508676285
1.7607042817126852,-0.0035338957459107334,0.015240346937496112
1.7647058823529413,-0.019910349610085677,0.01572535412971571
1.7687074829931972,0.018283661162078246,0.015842665820647486
1.7727090836334534,-0.001702044626562769,0.01606851839557687
1.7767106842737095,0.003085325434126226,0.01464161042591463
1.7807122849139656,-0.0029151605638064438,0.015587374713402206
1.7847138855542217,-0.0060038528627667075,0.017063791802098913
1.7887154861944778,-0.015343028958483355,0.0173303242561943
1.792717086834734,0.0019130676645892654,0.01977674610028506
1.79671868747499,0.01563926655757873,0.020822487480524295
1.8007202881152462,-0.0032209838325887767,0.019816357658338175
1.8047218887555023,0.003594100246669889,0.01718561240008373
1.8087234893957584,0.007043572495588756,0.017370181230790805
1.8127250900360146,-0.007694980028940072,0.016383882817438737
1.8167266906762707,0.0032915659904751465,0.01858236980424484
1.8207282913165266,0.007272728610006584,0.01730591970786346
1.8247298919567827,0.002061330196218919,0.01883700643541401
1.8287314925970388,0.00173254711830097,0.017545261119160337
1.832733093237295,0.003118775864867443,0.014884005054315454
1.836734693877551,0.00442838471233749,0.015433042741345798
1.8407362945178072,-0.0008805528618450003,0.013522126511904353
1.8447378951580633,0.030388733506373587,0.011176832103377722
1.8487394957983194,-0.0038899756265212177,0.012048284281908857
1.8527410964385755,0.0005535683829270532,0.011888095177028388
1.8567426970788317,-0.0006838853255808575,0.011703092569357787
1.8607442977190878,-0.023364769435783767,0.011251764394483452
1.864745898359344,-0.011274457014116569,0.009544327653418123
1.8687474989996,-0.0067495210118828615,0.009382805787002558
1.872749099639856,0.003055015393308602,0.011690144552385947
1.876750700280112,0.02471383357533704,0.011794798551423506
1.8807523009203682,-0.017460040956768723,0.0113191517323925
1.8847539015606243,-0.018835115155747643,0.010324271524584748
1.8887555022008804,-0.013242925282962432,0.012775581302038
1.8927571028411365,-0.024766739371103824,0.01402438805435144
1.8967587034813926,-0.0037417808133524476,0.013942539864333112
1.9007603041216488,-0.02553068191027386,0.014097987405847149
1.9047619047619049,0.006719244425586308,0.017693074150662163
1.908763505402161,-0.01788935892013378,0.01993655569518585
1.9127651060424171,-0.011935793998782784,0.022190278338174333
1.9167667066826732,0.01409519009424882,0.02412419101572241
1.9207683073229291,0.010494353484182097,0.023244712113054282
1.9247699079631853,-0.008768289964268358,0.023221529198143517
1.9287715086034414,0.007361869475887701,0.027128833949501868
1.9327731092436975,0.0041421039107965825,0.028072977765871428
1.9367747098839536,-0.0019844283095097554,0.02721642973040637
1.9407763105242097,0.008939632003826763,0.027319886246292648
1.9447779111644659,0.018776728227300265,0.02846900892918432
1.948779511804722,0.007595368179535959,0.02963278476091146
1.952781112444978,-0.0013419970347380518,0.027138337264153867
1.9567827130852342,-0.014755793778778024,0.02555862576690349
1.9607843137254903,0.002275814462540245,0.023260118672146435
1.9647859143657465,-0.015466862606844198,0.021498891192063063
1.9687875150060026,0.009550894883015106,0.01902297131650531
1.9727891156462585,-0.0001129070447640857,0.021374969332714093
1.9767907162865146,-0.0034449415409674557,0.018569251350910976
1.9807923169267707,0.003967940650879681,0.017728059503162565
1.9847939175670268,0.002888690190130534,0.01723785898611303
1.988795518207283,0.011819647004344713,0.0157266962211018
1.992797118847539,-0.00980099694475362,0.01594127435960061
1.9967987194877952,-0.008721035688368114,0.01579368403572217
2.000800320128051,0.03104142543926991,0.014439675744524823
2.0048019207683074,0.0023387404040757995,0.013826929555335049
2.0088035214085633,-0.006611919367637085,0.013799684256063767
2.0128051220488197,0.021632959839561757,0.01394114282527567
2.0168067226890756,-0.010296086302392649,0.014391679124563673
2.020808323329332,0.018003260941832924,0.012987557008979259
2.024809923969588,-0.013365974517210468,0.013163651256254627
2.028811524609844,-0.030119886664747304,0.01780969322545976
2.0328131252501,0.005708821710309614,0.01586722651105243
2.0368147258903564,0.0085238347134693,0.016545546817340957
2.0408163265306123,0.012445530709632467,0.01751014270582728
2.0448179271708686,9.514893804949663e-05,0.01762671702376908
2.0488195278111245,-0.018138425346475053,0.020425401695997693
2.0528211284513804,0.01516669486931565,0.021977402460378048
2.0568227290916368,-0.0028737738898629945,0.026068492601974025
2.0608243297318927,0.003671336862316722,0.02650966100504777
2.064825930372149,-0.011299799293781826,0.025994079290226183
2.068827531012405,0.007889800277776611,0.026407777988169227
2.0728291316526612,0.0015306409614119717,0.025058383942003826
2.076830732292917,0.010227989150096425,0.023039897958258924
2.0808323329331735,0.012054770293504326,0.025046644149221392
2.0848339335734294,0.013417257004419742,0.02446186586527022
2.0888355342136857,-0.007790034474901759,0.02165203218595988
2.0928371348539416,-0.018826187897550882,0.021809048429488633
2.096838735494198,-0.005709200557634239,0.020226945162748963
2.100840336134454,-0.004469740325619735,0.018375480021036297
2.1048419367747098,-0.009787824465914561,0.015263683071904007
2.108843537414966,-0.006021551993788651,0.016256414078384983
2.112845138055222,0.007478567934149955,0.017021918552987274
2.1168467386954783,0.004092303105788634,0.016293634136215977
2.1208483393357342,-0.0067651049068970966,0.01922383171265757
2.1248499399759906,-0.003499366721614779,0.01727946095820805
2.1288515406162465,-0.003499112493188706,0.015606078592872451
2.132853141256503,-0.043640286383414315,0.016687680861980123
2.1368547418967587,-0.006664017943111545,0.01705533770670961
2.140856342537015,-0.011630351600804488,0.016457561849576165
2.144857943177271,-0.006026285247784007,0.015863498859586038
2.1488595438175273,0.0043713901304675,0.016682354321912174
2.152861144457783,0.012511081670175481,0.015629759579284384
2.156862745098039,0.0038755788732974163,0.01429135182702077
2.1608643457382954,-0.004041497614598644,0.019019303524229262
2.1648659463785513,0.011744866021878657,0.018843154677407752
2.1688675470188077,-0.016551346127155725,0.01771747114630276
2.1728691476590636,-0.005677917834649175,0.017767074416714643
2.17687074829932,0.0003017086266798707,0.01775168896457284
2.180872348939576,-0.00946063362309909,0.01817770279526346
2.184873949579832,0.016141699251753985,0.01784199663126648
2.188875550220088,-0.015197865711745886,0.017304317160192623
2.1928771508603444,-0.017322507458965943,0.018501448902792483
2.1968787515006003,0.004861890282881694,0.020032363464877082
2.2008803521408566,-0.021106870031543417,0.020373165980176397
2.2048819527811125,0.003027138140126439,0.019872978826607067
2.2088835534213684,0.03491071940506331,0.01452607116716366
2.212885154061625,0.01218525182597798,0.016008716035978192
2.2168867547018807,-0.010066168209447321,0.016566801533766294
2.220888355342137,-0.027810175252890566,0.01833393057651279
2.224889955982393,-0.01843181414778444,0.018410662164170893
2.2288915566226493,0.0018311560642779153,0.01975534775681437
2.232893157262905,-0.010741557203534162,0.019622621591145334
2.2368947579031615,-0.013998111220038422,0.02445166065687078
2.2408963585434174,-0.00027413774786381225,0.024520552586392744
2.2448979591836737,-0.007932171137404903,0.02350604118324271
2.2488995598239296,-0.008183964436217515,0.02696830973056299
2.252901160464186,-0.019327899317201337,0.029804500044054553
2.256902761104442,0.013489277753590604,0.028610979668558606
2.2609043617446978,-0.014891879644701608,0.02776620628592104
2.264905962384954,-0.0034906644193012253,0.027578522211827387
2.26890756302521,-0.010239360268833582,0.024911553672721774
2.2729091636654664,-0.0014444091317434924,0.02539185428703209
2.2769107643057223,-0.007652295571038166,0.023370254378031873
2.2809123649459786,0.025736052457977627,0.025920270476898044
2.2849139655862345,0.007717741277073208,0.022569198678545375
2.288915566226491,0.003113012369618034,0.022992611084653815
2.2929171668667467,0.0055709478949401495,0.02196396951749744
2.296918767507003,-0.0020270142539713285,0.019215272043016405
2.300920368147259,-0.004206967518472833,0.016557840540382878
2.3049219687875153,0.009483167117076103,0.017468472828945012
2.308923569427771,0.014824379276503704,0.019814142695391373
2.312925170068027,0.00785667424593931,0.01883167050974155
2.3169267707082835,0.003694227894650271,0.01927577099741184
2.3209283713485394,0.007321657365307994,0.018906392094433358
2.3249299719887957,0.01724491630235752,0.017943227128448494
2.3289315726290516,-0.0070685953381973725,0.01557777811059261
2.332933173269308,-0.004123299229656124,0.01495108058978492
2.336934773909564,0.007101949634493533,0.01494052114266989
2.34093637454982,0.015970719701273974,0.015623519637328711
2.344937975190076,-0.0010565729097708593,0.014599629234784169
2.3489395758303324,0.007307649423215446,0.015519038914480593
2.3529411764705883,0.0016612650010238623,0.017019664377884335
2.356942777110844,-0.01757813378523007,0.014099413251987176
2.3609443777511006,-0.008494705306080224,0.013537115271679006
2.3649459783913565,-0.006230604308535925,0.014161126269220966
2.368947579031613,-0.019896188234201768,0.015788018734094474
2.3729491796718687,-0.002400226074162309,0.01563620735401016
2.376950780312125,0.011985205076707528,0.0161212637687791
2.380952380952381,0.006873386848015482,0.014897641380657722
2.3849539815926373,-0.012563486367405173,0.015328426069378476
2.388955582232893,0.005123757851121638,0.015428236713633801
2.3929571828731495,-0.0010145534410699352,0.01582501577308589
2.3969587835134054,0.011726959988872451,0.01779211754232503
2.4009603841536618,0.028076786430148614,0.015469882485116989
2.4049619847939177,-0.021235244009065988,0.01623901429735871
2.4089635854341735,0.017413855931614562,0.016669225354617283
2.41296518607443,-0.00729784515697685,0.017523603039326898
2.416966786714686,-0.011687562362489178,0.01582675422096766
2.420968387354942,-0.0033722031877051937,0.01582018088856378
2.424969987995198,-0.0213597688902367,0.01651151750566383
2.4289715886354544,-0.004568099748607669,0.020643840172837585
2.4329731892757103,0.01934568924451847,0.02121594167440581
2.4369747899159666,0.004436269727162715,0.022611212572264963
2.4409763905562225,-0.015023208009696946,0.022778166821537653
2.444977991196479,-0.0016061435905924612,0.021494047147919283
2.4489795918367347,-0.007615918405068966,0.021646098776695342
2.452981192476991,-0.009302287315828698,0.02311261241889063
2.456982793117247,-0.002523459575674392,0.022751983908838855
2.460984393757503,-0.0046256811025896715,0.02381296053039309
2.4649859943977592,-0.004509814995059478,0.023705413050564964
2.468987595038015,-0.011910342172683008,0.025896862534757967
2.4729891956782715,0.013042457674142135,0.02431360857079099
2.4769907963185274,-0.004029099209914138,0.021112804492138027
2.4809923969587837,0.014550823779168836,0.019246067635847956
2.4849939975990396,-0.006710025329207839,0.01691668252225295
2.488995598239296,-0.012093806358700908,0.016498661468912084
2.492997198879552,0.017480199807026447,0.015375807686704565
2.496998799519808,-0.0046505394708180325,0.01671147487607917
2.501000400160064,0.008215616284183795,0.015410352967112751
2.5050020008003204,0.0037922182428047797,0.0153260342021155
2.5090036014405763,0.018585563244995076,0.01457594750397193
2.5130052020808322,-0.0015694473404504782,0.014931643371613781
2.5170068027210886,-0.0020874275252273262,0.01447338125189199
2.5210084033613445,8.116702330339253e-05,0.016956645589458166
2.525010004001601,-0.0007441406714667177,0.016492755349031035
2.5290116046418567,-0.0202324468636866,0.016322761531272198
2.533013205282113,0.005418965493093141,0.016521240301166
2.537014805922369,0.0014114556986157614,0.018705060051342606
2.5410164065626253,-0.002200150069917481,0.018245082460456644
2.545018007202881,0.0008050607207540654,0.016708430876110496
2.5490196078431375,0.0076490982238896395,0.014680826185588096
2.5530212084833934,-0.019326735669216458,0.014166942381871639
2.5570228091236498,0.014657252845114894,0.015055749363080958
2.5610244097639057,0.010124847465038327,0.014853781900891394
2.5650260104041616,-0.00616495765312759,0.013182684099933428
2.569027611044418,-0.010445818910283775,0.010792343403702474
2.573029211684674,0.007721109720705324,0.010190774396342134
2.57703081232493,0.0010309250608113655,0.010102150916839824
2.581032412965186,-0.008378999769311928,0.01253229936789365
2.5850340136054424,-0.006696952993804076,0.011917772558242211
2.5890356142456983,0.003008457230955321,0.013256140000900222
2.5930372148859546,0.001227312718176237,0.013894010058427398
2.5970388155262105,-0.0010439403085542903,0.015515408524660643
2.601040416166467,-0.015307888918263833,0.016606853470303485
2.6050420168067228,0.02060679861483452,0.013603055721955143
2.609043617446979,-0.0024516565645452603,0.014066109868663895
2.613045218087235,0.016721843756203426,0.014892948753476168
2.617046818727491,-0.0037073050774376576,0.015019396607725707
2.6210484193677472,0.010543831532446972,0.015085451767942348
2.625050020008003,-0.0233537337133545,0.014052171245843384
2.6290516206482595,-0.01682448336409189,0.013423481345876138
2.6330532212885154,0.017234601971588357,0.01435420091957697
2.6370548219287717,0.011777531924577587,0.013153842229980981
2.6410564225690276,0.005670342018485782,0.014805312932747923
2.645058023209284,0.021556572642059395,0.013751170824319495
2.64905962384954,0.008218199014949292,0.014192744440690552
2.653061224489796,0.0028465093062830494,0.01768482194661404
2.657062825130052,-0.004429717360282275,0.019005994552939144
2.6610644257703084,-0.010627133760564606,0.020654455888311735
2.6650660264105643,-0.003847177338861553,0.022026249597696623
2.6690676270508202,0.0016347571874037066,0.0227212966645451
2.6730692276910766,-0.00921290853587626,0.025930198513504477
2.6770708283313325,-0.0009473399729311427,0.02482112003593947
2.681072428971589,0.01383711245858429,0.022042782069671932
2.6850740296118447,-0.012948220354722826,0.022352220801941648
2.689075630252101,-0.00932860195258572,0.021398792404459382
2.693077230892357,0.004726658945854391,0.02142067337765697
2.6970788315326133,-0.020542695184614556,0.020026978766769312
2.701080432172869,0.008781117044679133,0.017814853120481408
2.7050820328131255,0.004426308652344007,0.015331105839501254
2.7090836334533814,-0.0017793560612488228,0.014799618207741227
2.7130852340936378,-0.012759723288246505,0.014982755320861142
2.7170868347338937,-0.004765122816430388,0.01555503667781468
2.7210884353741496,-0.004116137150606813,0.01292224239283318
2.725090036014406,0.010146616820051003,0.014850229883825948
2.729091636654662,-0.0009804605886912978,0.01577861262061796
2.733093237294918,-0.001635749542567678,0.015778079378027356
2.737094837935174,0.0060318723804999134,0.014393973732447126
2.7410964385754304,-0.015508399917461084,0.015788211425149426
2.7450980392156863,0.007935331999356377,0.016277911425207202
2.7490996398559426,0.006382295769034247,0.015480595953647747
2.7531012404961985,-0.01686037680526308,0.016919688509096868
2.757102841136455,-0.012815171443335455,0.014908453028151792
2.7611044417767108,-0.010573353730744738,0.013138782129008797
2.765106042416967,-0.03271457892284642,0.012623056918933943
2.769107643057223,0.009969375000728356,0.014309702883054233
2.773109243697479,0.011891752696358523,0.01233746497726399
2.7771108443377353,0.004049720526782173,0.011962204410916936
2.781112444977991,0.015206748451063394,0.013907332838964524
2.7851140456182475,-0.014357001821575772,0.015633725035177647
2.7891156462585034,-0.022860822859806625,0.015291699438388862
2.7931172468987597,-0.0067957213224982965,0.019663983790738585
2.7971188475390156,0.007814344539045927,0.020579637396491317
2.801120448179272,-0.0031222176566505716,0.02085263842576544
2.805122048819528,-0.006054927049287396,0.021332779332605058
2.809123649459784,-0.00957874700827,0.02345576397844043
2.81312525010004,-0.002274151333542348,0.02475810893456092
2.817126850740296,-0.005235189295668391,0.025908288160241627
2.8211284513805523,-0.019160488584079694,0.025730012707895582
2.8251300520208082,0.00409079406905364,0.025954035830387988
2.8291316526610646,0.009587080554278291,0.02380490140548661
2.8331332533013205,0.012418517435960062,0.022747359868019228
2.837134853941577,-0.014060117389130562,0.02259176816731276
2.8411364545818327,-0.027904233452194536,0.017829807694064195
2.845138055222089,-0.008385389351294152,0.017089213458507686
2.849139655862345,-0.00182183529138141,0.018226301066303765
2.8531412565026013,0.012077351283852922,0.01823272642232806
2.857142857142857,0.011562978406046443,0.017353611425708314
2.8611444577831135,0.015532674826829719,0.01705036384499578
2.8651460584233694,-0.008109798647936957,0.015673621962342746
2.8691476590636253,0.013178952957725273,0.018975740505711065
2.8731492597038817,-0.0007518128903216391,0.019065072129467064
2.8771508603441376,0.0020330269172064296,0.01886164629369802
2.881152460984394,0.007869726554392468,0.01980376663921551
2.88515406162465,0.0009400455861682591,0.020114170672084954
2.889155662264906,0.011153518379196675,0.022188273101278702
2.893157262905162,-0.0003448967615283514,0.02263796376581928
2.8971588635454184,0.006557758449124474,0.02170223984609234
2.9011604641856743,0.0002465530301694167,0.021179904989021225
2.9051620648259306,-0.0017002300623588974,0.019998183584911407
2.9091636654661865,0.006672365247082796,0.01928659166276937
2.913165266106443,0.012489119033850207,0.017234147979164796
2.917166866746699,-0.009907978264649626,0.014613743162502742
2.9211684673869547,-0.017803951982541047,0.01335592548613849
2.925170068027211,0.025560984417480385,0.01409679152080087
2.929171668667467,0.01825962706166509,0.01224603586088975
2.9331732693077233,0.001129116695139335,0.010703152876330741
2.937174869947979,0.009823892809107528,0.009317086801019574
2.9411764705882355,-0.0017841457785544436,0.010002167538345949
2.9451780712284914,0.00429477924598573,0.009490471303077045
2.9491796718687477,0.0060717186656918075,0.012158029506826373
2.9531812725090036,0.006863016412824055,0.015838634955087038
2.95718287314926,-0.011010632267235403,0.017463983199341074
2.961184473789516,0.008596986949631557,0.017493560613945785
2.9651860744297722,0.013078743512468217,0.017285560105726582
2.969187675070028,-0.017663490048551216,0.017510709601742475
2.973189275710284,0.011498809434816924,0.017156699544376635
2.9771908763505404,0.0033202414300052196,0.018067961662003074
2.9811924769907963,-0.01282423848462341,0.0188756042110644
2.9851940776310526,-0.010803441942757742,0.01955426274868703
2.9891956782713085,-2.2973569691492065e-05,0.018945395508325913
2.993197278911565,-0.01083684523130437,0.019441415438918735
2.9971988795518207,0.0028646297468446877,0.019419442220057294
3.001200480192077,0.00012946100323512597,0.017219620248473778
3.005202080832333,0.008623515361466405,0.014882571477924348
3.0092036814725893,0.0015551265921739225,0.016712102535856
3.013205282112845,-0.0005023290620032981,0.016865338696628138
3.0172068827531016,-0.016088432228208275,0.016589829017252408
3.0212084833933575,0.003388572117357872,0.017613239728027627
3.0252100840336134,0.0009120427583150206,0.017111537489419463
3.0292116846738697,0.008591732372390084,0.016058171053917807
3.0332132853141256,-0.008685845013132883,0.015684741465356783
3.037214885954382,-0.021218184816176287,0.014583145221940944
3.041216486594638,-0.010986041553552765,0.012615748793864843
3.045218087234894,0.01532022337365578,0.012369353993346682
3.04921968787515,-0.008872706214804108,0.011100625772591473
3.0532212885154064,-0.01963218451515967,0.010723898249540917
3.0572228891556623,-0.01725280158266241,0.010061784461877828
3.0612244897959187,0.015444518016354191,0.009730517338656165
3.0652260904361746,0.002704326659737649,0.013046198693059292
3.069227691076431,0.010407400073910226,0.013069538279443767
3.073229291716687,0.002580804903708934,0.015018034053614895
3.0772308923569427,-0.006687173775297752,0.016385787117636923
3.081232492997199,-0.016968661329971317,0.01810793268274646
3.085234093637455,-0.0018230177348221382,0.020563604752637965
3.0892356942777113,-0.005254463138161326,0.02290109206209455
3.093237294917967,-0.015787446151399806,0.020807344150707202
3.0972388955582235,-0.0007116253244185432,0.02190533731126906
3.1012404961984794,0.002797938486505122,0.022166390785380293
3.1052420968387358,0.00950473802813185,0.021868450398973692
3.1092436974789917,-0.023866000529883212,0.02316417608456892
3.113245298119248,0.0017967146951423682,0.02013008535957816
3.117246898759504,0.002341263374663224,0.019233463596189763
3.1212484993997602,0.00042334619188900757,0.019306553778424922
3.125250100040016,0.012191510382905715,0.018029871822989593
3.129251700680272,0.0073886655617677426,0.015396399807847398
3.1332533013205284,-0.0005209403394745835,0.014184328384650422
3.1372549019607843,-0.01724988914246852,0.015501746372223969
3.1412565026010406,0.015175000973906845,0.015359763731284693
3.1452581032412965,0.01500438918405027,0.014097934408390083
3.149259703881553,0.0265685118348888,0.013760431491316668
3.1532613045218087,0.0001353235907726802,0.0146215045915544
3.157262905162065,0.0068518206870339556,0.013122854119308617
3.161264505802321,0.01160829998348499,0.012919163120830853
3.1652661064425773,-0.0050169807255941255,0.014795672388800528
3.1692677070828332,-0.02343138158221216,0.014699864282337594
3.1732693077230896,-0.0324188032894745,0.01693575851717932
3.1772709083633455,0.02570313924847563,0.02065431767274231
3.1812725090036014,0.010728926322896543,0.019188609575269137
3.1852741096438577,0.0026791264207101225,0.016526989541887634
3.1892757102841136,0.016352673968068387,0.018061868813406528
3.19327731092437,-0.004592041705509707,0.018480445728114366
3.197278911564626,0.007352350065027752,0.022079716953014
3.201280512204882,0.013084467982592723,0.02524398161451784
3.205282112845138,0.012903286637195706,0.028109013635786106
3.2092837134853944,-0.023869044128897617,0.029705904008693055
3.2132853141256503,-0.0127082076179841,0.027426520910589752
3.2172869147659067,0.0022506277251123736,0.027610750656777035
3.2212885154061626,0.007546025373980072,0.02598189091158864
3.225290116046419,-0.005470881394409455,0.022975802954145443
3.229291716686675,0.009858520038945785,0.02500150753977689
3.2332933173269307,-0.013489613878896342,0.02594817103769718
3.237294917967187,0.006653990366861653,0.027866185455260213
3.241296518607443,-0.009323960907285904,0.029069365612467226
3.2452981192476993,-0.0009107846022458205,0.025755945905558887
3.249299719887955,-0.005582384100384279,0.021864962937399396
3.2533013205282115,-0.025401038261846965,0.01869992158234665
3.2573029211684674,-0.019461111823236635,0.018563759226950007
3.2613045218087238,0.021612965848756688,0.020254902159203707
3.2653061224489797,-0.013118686755885185,0.018737684708299087
3.269307723089236,-0.01668554348146288,0.019477924382507266
3.273309323729492,0.0047049975108927064,0.018470235511198873
3.2773109243697482,0.01589071130765417,0.01729664401649121
3.281312525010004,0.014288577053635575,0.01925173479392756
3.28531412565026,0.01149903724657765,0.018562178139483968
3.2893157262905164,0.02357029464769344,0.019955197557308225
3.2933173269307723,-0.03143189249623032,0.021655346721561653
3.2973189275710286,0.0036779815784921555,0.023085090894658124
3.3013205282112845,0.004122772560980143,0.022965279542806864
3.305322128851541,-0.00818390611215243,0.023908927798219605
3.3093237294917968,0.019428547691850998,0.02403391392223273
3.313325330132053,0.01570069190019887,0.024791850770017047
3.317326930772309,0.0009271347006561866,0.027020481690574992
3.3213285314125653,0.022711847213248898,0.0317950634195773
3.3253301320528212,0.006483093824240573,0.031497147448857114
3.3293317326930776,0.007862541831713983,0.02816847343764145
3.3333333333333335,-0.009850224692008715,0.026404319248698807
3.3373349339735894,0.00020201329121599326,0.02606259892004329
3.3413365346138457,-0.011668608718389326,0.026466515928202095
3.3453381352541016,0.004977150533698936,0.02400134294351439
3.349339735894358,0.018072956894938503,0.026818251683668796
3.353341336534614,-0.014934648635029472,0.025346567277395912
3.35734293717487,0.013353274762443305,0.024341307885532248
3.361344537815126,-0.01049336529920594,0.02408337523364623
3.3653461384553824,-0.015629629043959564,0.020427748786848315
3.3693477390956383,0.002271286826925461,0.017336071579109557
3.3733493397358947,-0.009584516583984671,0.017539307594589843
3.3773509403761506,0.00431767534280328,0.019721610264220635
3.3813525410164065,-0.002955244407022742,0.020777665372668397
3.385354141656663,-0.012080759688578593,0.01982727762042139
3.3893557422969187,0.015645880430401063,0.0190126673994422
3.393357342937175,0.014061138900564128,0.021312657986485458
3.397358943577431,0.0038963486412776013,0.018115030741429148
3.4013605442176873,0.0008877627690903805,0.018600203052146762
3.405362144857943,0.008535926839261987,0.018045660444175392
3.4093637454981995,-0.013396177519761299,0.01696704144368316
3.4133653461384554,0.003562625337595446,0.018825297890641225
3.417366946778712,0.005922223414876945,0.019447483982751982
3.4213685474189677,-0.0034028155330679986,0.02086854133865001
3.425370148059224,-0.011079050721939578,0.01865081795251784
3.42937174869948,-0.015984801705831036,0.016453387740028334
3.433373349339736,0.0034443024305926867,0.015699783989595602
3.437374949979992,-0.003362996424682176,0.016153886581124394
3.441376550620248,0.014624115048253871,0.014266180026685565
3.4453781512605044,0.009430792336269634,0.01483731575305331
3.4493797519007603,-0.022219826595751342,0.013870278875021815
3.4533813525410166,0.0022606025410766236,0.014927997338594132
3.4573829531812725,-0.01716094681787229,0.01696628134951433
3.461384553821529,0.018595090363102806,0.015615233701751314
3.4653861544617848,0.013826685527776945,0.013693755826280133
3.469387755102041,-0.004199629602665359,0.013781825225266574
3.473389355742297,-0.010323542320808184,0.014647608139769131
3.4773909563825534,-0.0022462175071995658,0.017984698082325275
3.4813925570228093,0.02713300726892491,0.017003015214136028
3.485394157663065,-0.0040997162143307005,0.01759195840607738
3.4893957583033215,-0.00279700499183421,0.01994356808885694
3.4933973589435774,-0.0013097189297073375,0.021180105783128574
3.4973989595838337,-0.011716465411797527,0.021304755711018687
3.5014005602240896,0.010474218489726503,0.021186567451907015
3.505402160864346,-0.012243370406439125,0.019037366534135798
3.509403761504602,-0.001158721466139214,0.02274311855656227
3.513405362144858,-0.002912098967364961,0.022858367611716772
3.517406962785114,-0.004142564191247266,0.02100818891642077
3.5214085634253705,0.0037774738066692496,0.01973776554772972
3.5254101640656264,0.006701230122827542,0.018094668037108158
3.5294117647058827,0.004509586917715889,0.01937956833540942
3.5334133653461386,0.025123431121935533,0.01861028530130209
3.5374149659863945,0.0001593429675273468,0.0158826199542655
3.541416566626651,0.017035196513441698,0.014175192237291039
3.5454181672669067,0.004053758281633783,0.01416626518681629
3.549419767907163,-0.0027159899371579106,0.013142228338843116
3.553421368547419,0.019757171504387636,0.013839150020419572
3.5574229691876753,-0.0007053392705505977,0.010300046203100047
3.561424569827931,0.003366907177866145,0.0135888994590917
3.5654261704681876,0.006240618180152183,0.013176275744635353
3.5694277711084434,0.01940563806225283,0.01563629712432884
3.5734293717487,-0.0026853519857201386,0.014437578467540289
3.5774309723889557,-0.007153308994914733,0.013223916878806847
3.581432573029212,-0.005262540582867835,0.014399341360848446
3.585434173669468,0.001314335131058173,0.014328416335622249
3.589435774309724,-0.009953423107907025,0.014399564440062032
3.59343737494998,0.007735876526620022,0.01472777435553041
3.597438975590236,-0.0025903785820901868,0.017172572485786453
3.6014405762304924,-0.004631365423707252,0.016544346982114228
3.6054421768707483,-0.0203555413293151,0.016957918703370174
3.6094437775110046,-0.0021504816943729277,0.013850972342873302
3.6134453781512605,0.004902487025126857,0.014031654004243204
3.617446978791517,0.013742588106863362,0.012923813947176845
3.621448579431773,0.010317988877356545,0.013499827588542805
3.625450180072029,0.017316983412299435,0.013480177525938759
3.629451780712285,0.013849176741217313,0.011113965997834875
3.6334533813525414,-0.0051746171350754745,0.01418795322159067
3.6374549819927973,0.00857237615085053,0.013997661214224707
3.641456582633053,0.005555447555473312,0.013788330131421781
3.6454581832733095,0.004038104174710742,0.01290242864510126
3.6494597839135654,0.0059157544853806684,0.014096443252090632
3.6534613845538217,-0.029554530070306877,0.01568640172742952
3.6574629851940776,0.0035923654740980153,0.017029655591530773
3.661464585834334,-0.0015259836188808503,0.017633540351848078
3.66546618647459,0.012739648052301255,0.01741749571837801
3.6694677871148462,-0.004145495506625743,0.017076399439593312
3.673469387755102,0.008020540314207248,0.017302874972104948
3.6774709883953585,0.002482148269817771,0.017503798889024914
3.6814725890356144,-0.008638542829407611,0.018942846374476574
3.6854741896758707,-0.008077471788314089,0.01916840804064981
3.6894757903161266,-0.008951967298931897,0.018640203378899847
3.6934773909563825,-0.011567117634726034,0.018483308050053004
3.697478991596639,0.006122974831516105,0.017517711579156617
3.7014805922368947,0.0009687922916589148,0.016063418782347336
3.705482192877151,0.004890686941352977,0.014285213133944574
3.709483793517407,-0.010781401078621366,0.014827093736320726
3.7134853941576633,0.026818156470931366,0.014749673174289433
3.717486994797919,0.0012720308031461249,0.015281009099762481
3.7214885954381756,-0.006885655084728436,0.01645881333375251
3.7254901960784315,-0.019831885275612724,0.016491229931536983
3.729491796718688,0.0016403061249350437,0.012019408601129647
3.7334933973589437,-0.008854901813082587,0.012222512039492994
3.7374949979992,-0.002896062455597999,0.013670386974146848
3.741496598639456,-0.005365930293845727,0.015872764073323022
3.745498199279712,-0.01092026567052156,0.015423252472373866
3.749499799919968,0.0066247610853418,0.015245716247279887
3.753501400560224,-0.0058622434799643795,0.01795982929974842
3.7575030012004804,-0.01355458376206465,0.016865057339947
3.7615046018407363,-0.007164658772323553,0.016986674917026146
3.7655062024809927,0.0201725402631613,0.016039317019075874
3.7695078031212486,-0.009008571658063692,0.01506923179547483
3.773509403761505,-0.011868209280052505,0.015819697907916968
3.777511004401761,0.007918114393268281,0.016704491649871794
3.781512605042017,-0.012319486690975476,0.01685647748584012
3.785514205682273,-0.002419453272793587,0.017290301428848548
3.7895158063225294,0.007274118244200929,0.014215798650354829
3.7935174069627853,-0.01827605307635734,0.017172507412372272
3.797519007603041,0.014970430226828072,0.017504606716186876
3.8015206082432975,0.0008867687484285827,0.01625880587448184
3.8055222088835534,0.01943331467108316,0.01724087732353534
3.8095238095238098,-0.000194704730849322,0.017782861045555647
3.8135254101640657,-0.005149088499231739,0.017708302497288102
3.817527010804322,0.016484590679606073,0.018006810643024968
3.821528611444578,-0.0106985166723656,0.019157516189898346
3.8255302120848342,0.015344130613598253,0.02046307428227324
3.82953181272509,-0.012590422829273352,0.019684733901287742
3.8335334133653465,0.009137424277091454,0.02060437552391223
3.8375350140056024,-0.0056461336721308295,0.019514027973816656
3.8415366146458583,-0.0036041301476732778,0.01716382828421944
3.8455382152861146,-0.007928520408185794,0.01833334231201674
3.8495398159263705,-0.004572774832629494,0.018150360980781655
3.853541416566627,0.009643700315236165,0.019312052800358442
3.8575430172068828,0.011078850077627772,0.019354436803591116
3.861544617847139,0.026745364263782084,0.020405365286413644
3.865546218487395,0.005949962643842979,0.020150690868305923
3.8695478191276513,0.006176419803839762,0.01785548273274438
3.8735494197679072,0.012898413313689377,0.016753878751848323
3.8775510204081636,0.008217508950877927,0.01733050058889788
3.8815526210484195,0.007188961359983992,0.015799058348997464
3.885554221688676,0.0066798729813982985,0.017501723982533537
3.8895558223289317,0.0017653890437709476,0.02088014602534019
3.8935574229691876,-0.006135084634529714,0.019232157272241767
3.897559023609444,0.010113614584051153,0.018524741238713786
3.9015606242497,-0.0021394393819261378,0.01814214447404158
3.905562224889956,0.006028009246758179,0.017458065941282866
3.909563825530212,-0.0034224270764405297,0.017153257365002665
3.9135654261704684,-0.014914022005243733,0.017314970787586273
3.9175670268107243,-0.0064326022113043975,0.0170273265870693
3.9215686274509807,0.02447403780123559,0.016746769744022155
3.9255702280912366,0.004790788695442374,0.017613553228172204
3.929571828731493,-0.010841072424830157,0.016439621165604133
3.933573429371749,-0.0019587426431944364,0.015649490858705224
3.937575030012005,0.006904768179668383,0.012000957845154389
3.941576630652261,-0.012466755591628017,0.013403254059082837
3.945578231292517,-0.009330222898362737,0.013443330056527661
3.9495798319327733,0.011104992003377908,0.015254167506203693
3.953581432573029,-0.014537406276037007,0.014718107151552235
3.9575830332132855,0.010441423787762588,0.015289426607683067
3.9615846338535414,-0.014408697524005164,0.0145508746936659
3.9655862344937978,0.004381453519233965,0.01535485552574795
3.9695878351340537,-0.004323029763298784,0.016345353006076126
3.97358943577431,0.005127451554866943,0.016222802814184912
3.977591036414566,-0.003374316120752985,0.0176253326268471
3.9815926370548222,-0.024077508454314212,0.0189565035568784
3.985594237695078,0.006584356149234819,0.020054523116660197
3.9895958383353345,0.02257445680780058,0.019975472479189245
3.9935974389755904,0.01117156296753663,0.019654600212604297
3.9975990396158463,-0.0014264682358301332,0.016502269205056746
4.001600640256102,-0.0007707736634953059,0.01655493519421499
4.0056022408963585,0.008534727492369483,0.015386870183331616
4.009603841536615,-0.006374826289776773,0.018847028165692014
4.013605442176871,0.00873196726504376,0.018796904381471122
4.017607042817127,0.0049628055116958765,0.02037810666667597
4.021608643457383,-0.0007853107441683287,0.020666157437365402
4.025610244097639,-0.035338817349317854,0.01915209369810789
4.029611844737896,-0.011499286217191524,0.016998505015480683
4.033613445378151,0.011993954329933523,0.016700230217384815
4.0376150460184075,0.0028355025708275785,0.015443448355424154
4.041616646658664,-0.0025838548679989856,0.016124022714476525
4.04561824729892,-0.007751322102353678,0.016224106289737486
4.049619847939176,-0.011497760038254076,0.015544841754140372
4.053621448579432,-0.003960228056322913,0.020545221297133875
4.057623049219688,0.004684699330119414,0.018577542067228427
4.061624649859944,-0.007753522128337042,0.019423794723735
4.0656262505002,-0.008680997256386776,0.016335923517459456
4.069627851140456,0.010189298578992522,0.014992501963809406
4.073629451780713,0.0043682015575098754,0.015981933009845087
4.077631052420968,0.01006672278810406,0.017660013416692776
4.081632653061225,0.018546199090573177,0.016944399766541367
4.085634253701481,0.003975765468368251,0.01668000407915989
4.089635854341737,-0.003400610346083324,0.016526940622591465
4.093637454981993,0.009655023045821505,0.01710859743632159
4.097639055622249,-0.0029336588683332603,0.018579714037064682
4.101640656262505,0.013007847986177018,0.013734813360157694
4.105642256902761,0.0002730439914465427,0.013510709726766783
4.109643857543017,0.008610758227901019,0.014535712758333246
4.1136454581832735,-0.010448689809431259,0.014714090241082814
4.11764705882353,0.006085108175056968,0.014841859711190833
4.121648659463785,0.0015116359495650465,0.015139665930209422
4.125650260104042,0.005039285766917835,0.013799937336042288
4.129651860744298,-0.006112119596630602,0.015215305380940578
4.133653461384554,0.0079020469768261,0.014525166312337679
4.13765506202481,-0.0054467173812882425,0.014659268384668614
4.141656662665066,0.00209041162558865,0.01493579807669605
4.1456582633053225,0.02035270111009823,0.014293757408216923
4.149659863945578,0.0011419276156842244,0.013846889424041362
4.153661464585834,-0.0061208350251041686,0.013060420301477282
4.157663065226091,0.01235549559144081,0.011115290099292144
4.161664665866347,0.01377433854379959,0.011729499518501897
4.165666266506602,0.006134485021388332,0.012049583091477242
4.169667867146859,-0.004911321820844636,0.010866210076333037
4.173669467787115,0.012427647356809188,0.013591164921128903
4.1776710684273715,0.011053802081909736,0.011734914918817636
4.181672669067627,0.002975286764190069,0.01264971644965683
4.185674269707883,0.009473403368914191,0.01323552593789606
4.18967587034814,-0.007352887581415865,0.013755775128697034
4.193677470988396,0.01734620701129094,0.013763499415415208
4.197679071628651,-0.00719973439077474,0.014295330635361127
4.201680672268908,-0.008139579685634606,0.01545113193775456
4.205682272909164,0.010712577072474966,0.01622418601517207
4.2096838735494195,0.015858344302653607,0.015453466309447897
4.213685474189676,-0.013333884974442003,0.01608338254354167
4.217687074829932,0.0018943575761573052,0.01690662007591705
4.221688675470189,-0.004234777682144788,0.01643629796826683
4.225690276110444,-0.018961773118109416,0.01738395339567267
4.2296918767507,-0.019170283951226032,0.017699756524614436
4.233693477390957,-0.01692182938686777,0.017442745908546994
4.237695078031213,-0.009634509957462113,0.01776875818352477
4.2416966786714685,-0.0054362734088376835,0.01889499919663049
4.245698279311725,0.009403057399155501,0.018423039187519006
4.249699879951981,0.014933383582501753,0.01714138434089204
4.253701480592237,0.024732381483653275,0.018378470954984454
4.257703081232493,0.025657549544604603,0.02091194182173847
4.261704681872749,0.0008547051257023317,0.02207713932697568
4.265706282513006,-0.008984116853992077,0.02243406583655695
4.269707883153261,-0.0007232221428943495,0.020570930606688326
4.2737094837935174,0.0023745167067867443,0.02091560832335072
4.277711084433774,0.001037573257694679,0.021978399755073284
4.28171268507403,-0.0008420734931949024,0.024171593469348347
4.285714285714286,0.014717106065036699,0.02570453606335505
4.289715886354542,-0.004525336916622338,0.023752350569116495
4.293717486994798,-0.0029951778739913605,0.024861439899312346
4.297719087635055,-0.005935317607120939,0.02431210830308328
4.30172068827531,0.005397047448556534,0.021717274207582217
4.305722288915566,0.012213635373971438,0.01888067635289939
4.309723889555823,-0.002362915726699612,0.0163652333039962
4.313725490196078,0.01045868537124841,0.017160331260316023
4.3177270908363345,-0.020510391735205778,0.01701782854556791
4.321728691476591,0.0029570214489574786,0.01601540934739304
4.325730292116847,-0.0031847403010474783,0.014607793295195994
4.329731892757103,0.011575732115143494,0.011583062576743772
4.333733493397359,0.006868995848861064,0.00947995848273965
4.337735094037615,0.014305255174069482,0.009715896011744897
4.341736694677872,-0.004515332671471516,0.009946570727915398
4.345738295318127,0.004544610472957582,0.01304198452260077
4.3497398959583835,0.006558762942387441,0.013133108885080865
4.35374149659864,0.005691320730532842,0.013469001820878547
4.357743097238895,-0.003933351602393159,0.015148126003385848
4.361744697879152,-0.007419370116311757,0.013920403740632276
4.365746298519408,0.0009453404518173437,0.015450329167498793
4.369747899159664,0.00571795476419236,0.015688135191661318
4.37374949979992,-0.01943025996037548,0.015470579364519205
4.377751100440176,0.02228239509866683,0.015652312792755505
4.3817527010804325,-0.017840918030673912,0.014631991891052463
4.385754301720689,0.0072349510081237516,0.014877663655809533
4.389755902360944,-0.010019586417871198,0.01440220715746405
4.393757503001201,-0.014718607509413185,0.011341540529334506
4.397759103641457,0.001967333601593946,0.011773448237524627
4.401760704281713,-0.0049175906804057885,0.014314822607452498
4.405762304921969,0.02124070124817547,0.015989723716458147
4.409763905562225,-0.010498482896133183,0.017706120754314162
4.413765506202481,-0.011853489663969848,0.016600074892333283
4.417767106842737,-0.0015284391014972294,0.017461135030144737
4.421768707482993,-0.003648812772430065,0.019052708328529445
4.42577030812325,-0.002181514729877376,0.01833444624195301
4.429771908763506,-0.02540716277151339,0.018213407471887766
4.433773509403761,0.006971102566337639,0.020920889640727833
4.437775110044018,0.0015296730854503114,0.021402571880807013
4.441776710684274,0.0025505816329393803,0.023108992568630055
4.44577831132453,-0.015925882422743853,0.022453604009146744
4.449779911964786,0.015563985767112659,0.01998482700201753
4.453781512605042,-0.0022692735121138106,0.016840337736455872
4.4577831132452985,0.019182450440323608,0.018023966260762882
4.461784713885554,-0.009046597215108504,0.017982691024170768
4.46578631452581,0.0007863218512726095,0.016654568034055486
4.469787915166067,0.012573672710552873,0.014751058036002964
4.473789515806323,0.010688500466507244,0.01693466920753533
4.4777911164465785,0.004067959852872363,0.018600142283981196
4.481792717086835,-0.013741983784611198,0.01563233939306646
4.485794317727091,-0.025337887031360924,0.016990819331467143
4.4897959183673475,-0.02108319661105677,0.016551721987813725
4.493797519007603,-0.008017200536987068,0.016435628578753754
4.497799119647859,-0.014360027153231921,0.017831792615212744
4.501800720288116,-0.0066973412341317555,0.019162586333713427
4.505802320928372,0.029023130719919982,0.015824379584446078
4.509803921568627,-0.0009244628314024637,0.016883585097768404
4.513805522208884,0.02294827230431522,0.020608032575270593
4.51780712284914,-0.0158193600450223,0.023507189616768214
4.5218087234893956,-0.008147692983547412,0.022269991800640827
4.525810324129652,-0.006738311610605361,0.022081650053012363
4.529811924769908,-0.023162664234519605,0.02277435659937265
4.533813525410165,0.009025113121442439,0.024313787357493157
4.53781512605042,0.01578010503612098,0.023043198014417985
4.541816726690676,0.007191211159585017,0.026510111603521572
4.545818327330933,0.014267412656485722,0.027017852000726036
4.549819927971189,-0.0026725165393048913,0.02662037976520986
4.5538215286114445,0.023742302151844936,0.027038117311198286
4.557823129251701,-0.022138688486811414,0.028511845227863042
4.561824729891957,0.005837851664463235,0.025959949912326565
4.565826330532213,-0.015158092404986539,0.025130358659320156
4.569827931172469,-0.003676187109040937,0.025001144680476643
4.573829531812725,0.009216803802860957,0.024986656494610616
4.577831132452982,-0.005520293690348423,0.024357031432600817
4.581832733093237,0.014782028417138616,0.0235309229019831
4.5858343337334935,-0.008807735613813057,0.0268495787830565
4.58983593437375,-0.005846348439862554,0.02417290328207697
4.593837535014006,0.00673915666235112,0.024069457614145716
4.597839135654262,-0.009271835540138705,0.023369955803015426
4.601840736294518,0.017334543069097805,0.023757679721089543
4.605842336934774,0.006332477922935382,0.020997788423923018
4.609843937575031,0.00436718190164253,0.02189837377232259
4.613845538215286,-0.0005326152578862393,0.020807648371159577
4.617847138855542,0.0014308069180198498,0.020597264233339047
4.621848739495799,-0.005374200181374026,0.01941957849382723
4.625850340136054,-0.0011805639722293657,0.020451945602999212
4.629851940776311,0.0017526270908191043,0.019449545246282052
4.633853541416567,0.015818567285551154,0.01697689437052796
4.637855142056823,0.022596852582664934,0.016746829557568014
4.641856742697079,0.007380537157186294,0.014458887186437735
4.645858343337335,-0.004807575137846394,0.014107630237576258
4.649859943977591,0.007367297352482503,0.013506511002105594
4.653861544617848,-0.00409807397523977,0.012827623646741164
4.657863145258103,0.011281199518472059,0.010789364035439676
4.6618647458983595,0.0038832932551701115,0.011886106293986223
4.665866346538616,0.0033700661492493656,0.014506478113698722
4.669867947178871,0.006546124148252669,0.014606812728110999
4.673869547819128,-0.004075274339667493,0.013908444365326424
4.677871148459384,-0.010213393563501368,0.012349214292409984
4.68187274909964,0.003412940043375884,0.011999674416566202
4.685874349739896,-0.002823794033576882,0.013081271529684782
4.689875950380152,0.00961756280157526,0.01360543618324753
4.6938775510204085,-0.0028302018728684195,0.01390880497724378
4.697879151660665,-0.015616623848727591,0.014092135372047093
4.70188075230092,-0.013020025559284235,0.014544970546940848
4.705882352941177,-0.01277487077998148,0.015868533936387333
4.709883953581433,-0.006354434786034909,0.013927854673594992
4.713885554221688,-0.005796559214345213,0.010834648345603999
4.717887154861945,-0.01107565682857905,0.011184598347619304
4.721888755502201,0.019335681472892132,0.010875267169499055
4.7258903561424574,0.006935904714108287,0.012165753861605972
4.729891956782713,0.01905344270322488,0.013561462928530697
4.733893557422969,0.0025670673819251414,0.013795125990144009
4.737895158063226,-0.004059589151072749,0.014181700004561463
4.741896758703482,-0.007806943969209748,0.014561289418366489
4.745898359343737,0.007191874198179586,0.015269868676089557
4.749899959983994,-0.002335836012014212,0.017657136573720214
4.75390156062425,-0.009163356687534617,0.0171444212938006
4.757903161264506,-0.0035342635017575133,0.01959114958726616
4.761904761904762,0.013242242404844012,0.01955098845076411
4.765906362545018,0.017786791130410335,0.01868152461825376
4.7699079631852745,-0.014178810711271738,0.01946006325995986
4.77390956382553,-0.010745688382386086,0.01814213417649913
4.777911164465786,0.015734429372876634,0.016470748708488407
4.781912765106043,-0.010919023790416317,0.015905780055983178
4.785914365746299,-0.009113285072054757,0.015464605432396802
4.7899159663865545,0.013196627024220389,0.016629373862323354
4.793917567026811,0.011792415395286898,0.017679232842859237
4.797919167667067,0.0010546001326967377,0.016872515701306462
4.8019207683073235,-0.003334505247046327,0.017468500734261174
4.805922368947579,0.0103938762685009,0.016949289555543794
4.809923969587835,-0.010455429164281339,0.018255831199048986
4.813925570228092,-0.002804978310317199,0.019046408143112342
4.817927170868347,-0.016881714947325547,0.019889545368961176
4.821928771508603,-0.010297341293771285,0.020609232872426945
4.82593037214886,0.00864491433358016,0.020408802224850843
4.829931972789116,0.005267353973915894,0.019496963516849375
4.833933573429372,-0.005434715232657943,0.020570049785470022
4.837935174069628,0.013533715822704753,0.0201340935408032
4.841936774709884,-0.0008575061755407042,0.01779040765605039
4.845938375350141,-0.01045947832849246,0.018213237562013564
4.849939975990396,0.010655835540508255,0.018143100205762038
4.853941576630652,0.003530113717670746,0.017034049083119684
4.857943177270909,-0.006770237649190132,0.016149927853380992
4.861944777911165,-0.010454767549554928,0.015574469308263611
4.8659463785514205,-0.019508653436406828,0.01562720192936915
4.869947979191677,-0.0023385143163024706,0.013916595029047912
4.873949579831933,-0.008463295854858208,0.015387850913765936
4.877951180472189,0.0015074357217550935,0.01653316614847418
4.881952781112445,0.00672307950747062,0.01545943070671903
4.885954381752701,-0.0020995855287867745,0.014882936297114171
4.889955982392958,-0.019076937680694277,0.01607963413846552
4.893957583033213,-0.01353518352797481,0.016490580312396922
4.8979591836734695,0.00808793063983569,0.015245538028777761
4.901960784313726,-0.012302021849413869,0.015217126469368873
4.905962384953982,-0.023056703902016633,0.014628942152742299
4.909963985594238,-0.016035046244624138,0.014830487933720722
4.913965586234494,-0.00489055366053218,0.013041785184855817
4.91796718687475,-0.012318417843592501,0.015891949244413443
4.921968787515006,-0.010496538565372785,0.01637309841829845
4.925970388155262,0.005045399090116367,0.01597138718739706
4.9299719887955185,-0.005428421522582511,0.01734362414680842
4.933973589435775,0.001380128698169427,0.019891404013478477
4.93797519007603,-0.017100211336978307,0.020764357144562866
4.941976790716287,-0.02173975366838776,0.018477568855452955
4.945978391356543,-0.015986415564640588,0.020038779058048385
4.949979991996799,-0.00653831107541799,0.020356850195242047
4.953981592637055,-0.00176398552313308,0.020910312910787394
4.957983193277311,0.0070232754992559585,0.020707782570754358
4.961984793917567,-0.001530927131483368,0.020595234053505135
4.965986394557824,-0.0021570456594071463,0.020286004076771426
4.969987995198079,0.005982634844184932,0.0215694892904407
4.9739895958383356,0.00616069077752904,0.022805091940900392
4.977991196478592,-0.01151572298488852,0.021903443539133226
4.981992797118847,-0.01597743304011653,0.018572508617447556
4.985994397759104,0.009060138947690156,0.017162748654072413
4.98999599839936,-0.026409409615614908,0.016637184133361505
4.993997599039616,-0.01510451556324961,0.015047585808794593
4.997999199679872,0.03059188641512081,0.014341451473549614
5.002000800320128,0.0008885921243367387,0.014515922575048463
5.0060024009603845,0.007888681723095151,0.015468192015653652
5.010004001600641,-0.011312947974558426,0.017751727162734057
5.014005602240896,0.013568198020977001,0.01649397522059971
5.018007202881153,0.004306967912360741,0.01722447471766259
5.022008803521409,0.0013704476122754648,0.017086514337977997
5.0260104041616644,0.02539702209798474,0.02084934502332022
5.030012004801921,0.004032774767415724,0.020712402506616687
5.034013605442177,0.0080737627718132,0.020847782675608585
5.0380152060824335,0.029657066285582158,0.02237803702129933
5.042016806722689,-0.012004279669296642,0.024163145208120792
5.046018407362945,-0.01358915208512979,0.023901011580980805
5.050020008003202,0.02179883781069144,0.023151647974202764
5.054021608643458,-0.012786602034360972,0.02532317455673773
5.058023209283713,0.004957506398549826,0.02345460715918091
5.06202480992397,0.02651309912875502,0.02330030300732561
5.066026410564226,0.004262567004525811,0.02380835147831687
5.070028011204482,-0.015982795079306045,0.02332336483542432
5.074029611844738,0.010671958085833311,0.02066353528542769
5.078031212484994,0.000453113461447323,0.023934637938378755
5.082032813125251,-0.012735588463129836,0.024700846062589352
5.086034413765506,0.011020417861412979,0.023706630015978114
5.090036014405762,0.001208347432211378,0.025731670801772147
5.094037615046019,0.010953936312499938,0.025724724927984204
5.098039215686275,-0.020084161514293996,0.02801061335235782
5.1020408163265305,0.02367878439804037,0.025707092070135155
5.106042416966787,0.014832584751640846,0.025147106321031273
5.110044017607043,0.0028746335389629976,0.02587638088887685
5.1140456182472995,0.0020815774793776476,0.022960949333608323
5.118047218887555,-0.01338791413423069,0.021272083353193052
5.122048819527811,0.007206896836578686,0.020859842319096874
5.126050420168068,-0.02582902944803134,0.020591606246396967
5.130052020808323,0.007050005931959041,0.02229552915388863
5.1340536214485795,0.0068322807646614934,0.02384034098840357
5.138055222088836,-0.011104627079666045,0.020142448162929975
5.142056822729092,-0.003345768001320651,0.019801264193655705
5.146058423369348,-0.003162442317998315,0.01939533295445141
5.150060024009604,-0.009360004611179482,0.01885327471108647
5.15406162464986,-0.0010361441935140155,0.022822966284770183
5.158063225290117,0.00907804009034489,0.021933539905938992
5.162064825930372,0.027196484135061153,0.021278367002970828
5.166066426570628,-0.024677005720449233,0.02282649547045504
5.170068027210885,0.011951511640843243,0.021636308615642644
5.17406962785114,0.025971317876856186,0.018989152700510714
5.178071228491397,0.006906203281163374,0.01674918865368042
5.182072829131653,-0.007895747713640117,0.014590936953155428
5.186074429771909,0.006460974397743155,0.015561369339839492
5.190076030412165,-0.009299138399892128,0.019490229814378784
5.194077631052421,0.0020171286443924534,0.02125624337495521
5.198079231692677,-0.005836640481585518,0.02199846909081988
5.202080832332934,-0.008524121039504826,0.022020728038131862
5.206082432973189,-0.010818575105610012,0.021998232212899833
5.2100840336134455,-0.02040906037820451,0.02216459609069969
5.214085634253702,-0.00022446762203347177,0.021438164424852087
5.218087234893958,-0.0197222793274271,0.022369482305898105
5.222088835534214,-0.005633453252406258,0.022190314702973283
5.22609043617447,-0.007334238774081948,0.021639135825187623
5.230092036814726,0.014043913607497389,0.022810520480038454
5.234093637454982,-0.02946349921264344,0.023082801771773985
5.238095238095238,0.01797067908249015,0.02202100841980752
5.2420968387354945,0.009115843192189398,0.0181957658356273
5.246098439375751,-0.001153453032065185,0.019411388988809012
5.250100040016006,-0.00792346680489883,0.016229826996363786
5.254101640656263,-0.004988460355126138,0.016296786900013165
5.258103241296519,-0.001503919128963248,0.017258577692328136
5.262104841936775,0.0036804399947626878,0.020856986868155968
5.266106442577031,0.008328230170830793,0.022213522805489785
5.270108043217287,-0.02532890516681283,0.023324013056926374
5.274109643857543,0.01605135529170396,0.022591396753886477
5.278111244497799,-0.020217145292805525,0.022497433168293213
5.282112845138055,-0.0171182845214271,0.02158539683388697
5.286114445778312,0.008775962524156234,0.01862796349606814
5.290116046418568,-0.010526439437285992,0.019168599917396143
5.294117647058823,0.006885903388937857,0.01738616727729001
5.29811924769908,0.004603819429335402,0.020467233180323736
5.302120848339336,-0.004994562292673479,0.02183089879165056
5.306122448979592,0.007364529961179265,0.022796610761083344
5.310124049619848,0.0019178913668176898,0.020865382159879466
5.314125650260104,-0.002174861641454253,0.01942700299503176
5.3181272509003605,-0.007113748270695427,0.01964767018320303
5.322128851540617,-0.00040814793267977194,0.02054442834910603
5.326130452180872,-0.0184982032034286,0.02002511798327165
5.330132052821129,-0.00457981237344049,0.020026072542314075
5.334133653461385,0.008110293777655904,0.020942879543471682
5.3381352541016405,-0.015200779868507725,0.02066715454342596
5.342136854741897,0.004431968355013313,0.01970454987474126
5.346138455382153,0.012437130667053849,0.016855054515359045
5.3501400560224095,0.006677963129883509,0.0144079031111955
5.354141656662665,-0.008900792164962933,0.014138999717463525
5.358143257302921,-0.0267589502122289,0.012177538808661445
5.362144857943178,-0.004355936672167491,0.012073404651878929
5.366146458583434,0.029602623213775443,0.012804636968070398
5.370148059223689,0.010013023643380236,0.012420754658888426
5.374149659863946,0.014511792074557226,0.013646161837523983
5.378151260504202,-0.006625641274251743,0.013909505321248385
5.382152861144458,0.007811140542671843,0.014149831113962745
5.386154461784714,-0.025240722450999682,0.018035852096698692
5.39015606242497,-0.00766491233610969,0.01837704944207026
5.394157663065227,0.017265226687544658,0.021895105594619376
5.398159263705482,0.010302765549015646,0.023397648170627474
5.402160864345738,0.0028192735396519487,0.02277403235018237
5.406162464985995,0.006071219039193164,0.02309407241309252
5.410164065626251,0.003745961003186785,0.02304727425704628
5.4141656662665065,0.01679008838491716,0.02461787669327194
5.418167266906763,0.011532381053048374,0.025123623578891155
5.422168867547019,-0.0064475975111917515,0.025878908712228258
5.4261704681872756,0.005509486946550585,0.026445956129436954
5.430172068827531,0.0029971864634970504,0.025494591329251567
5.434173669467787,-0.005197887810405476,0.022258297823249583
5.438175270108044,-0.003814046818120748,0.022162876035339146
5.442176870748299,0.007008205524965902,0.020158542021365508
5.4461784713885555,0.000850490025790533,0.02039622330584652
5.450180072028812,-0.010803366227725313,0.019134697801755852
5.454181672669068,-0.021795533226594423,0.018960091752778213
5.458183273309324,-0.005434241611339827,0.018207018919690978
5.46218487394958,-0.0033928595575982035,0.015071610060851462
5.466186474589836,0.0009463059781321367,0.014469198372294807
5.470188075230093,0.015441697292744493,0.012864637161510884
5.474189675870348,-0.013246822590855788,0.01138596665690639
5.4781912765106044,-0.0035632133685303768,0.012634961392076186
5.482192877150861,-0.005305798140364837,0.015094800775398669
5.486194477791116,-0.03013581899354606,0.015358907628043596
5.490196078431373,-0.013589143878314607,0.013263106774405925
5.494197679071629,0.014326045543949307,0.011607069883146689
5.498199279711885,0.00643286992070613,0.013014065482224831
5.502200880352141,0.0039019646726153024,0.014224458680492023
5.506202480992397,-0.0021413054248115167,0.01431300532592453
5.510204081632653,-0.01286939655554125,0.014329886321581182
5.51420568227291,0.013753743160813861,0.01844754328673076
5.518207282913165,0.00010581840319557638,0.019477035011956835
5.5222088835534215,-0.001384691774847498,0.02158508893282509
5.526210484193678,0.0013237600594228635,0.02090138859381221
5.530212084833934,0.01528460154411305,0.018102201035443223
5.53421368547419,-0.008485001429588149,0.0175870692451563
5.538215286114446,0.004793596971681385,0.01906953510326858
5.542216886754702,0.024016222144512635,0.021073071664922335
5.546218487394958,-0.005336806722758238,0.01867399731288467
5.550220088035214,0.003554298113204249,0.016818340131045897
5.5542216886754705,0.008905212805526063,0.01646801035632871
5.558223289315727,-0.005608013578847783,0.018029048460657577
5.562224889955982,-0.0019160240566749713,0.014642094149631078
5.566226490596239,0.004717435377180484,0.013266159249008718
5.570228091236495,0.007463643003973173,0.014782045903862893
5.574229691876751,-0.003445194863773665,0.014610582818809375
5.578231292517007,0.01256659091686124,0.01455619546143968
5.582232893157263,0.00956502410512622,0.015614310019692285
5.5862344937975195,-0.01684723505016679,0.014478372667475713
5.590236094437775,0.0005632442831492709,0.012626534341553645
5.594237695078031,-0.010205718619453711,0.013347954488608168
5.598239295718288,-0.014309984318282223,0.014298917657143742
5.602240896358544,-0.0008486477531166296,0.014630785159834209
5.606242496998799,-0.01722496763321365,0.014205592079517866
5.610244097639056,-0.005860461204432728,0.014374545859028231
5.614245698279312,-0.0075066231422004,0.016260161556120468
5.618247298919568,-0.006946988629791528,0.012591285577682238
5.622248899559824,0.008670029519425651,0.013352955758949347
5.62625050020008,-0.004767820747289364,0.015035525835239696
5.630252100840337,0.009354169033799993,0.013775193856749026
5.634253701480592,-0.014714498948819725,0.015592496713752017
5.638255302120848,-0.030199918860646484,0.01620954631766217
5.642256902761105,-0.005317693978357396,0.016645874022012824
5.646258503401361,-0.00020237753240557753,0.016565050988204703
5.6502601040416165,0.012489735158586285,0.017382400088721817
5.654261704681873,-0.007988818366786513,0.016162396355906307
5.658263305322129,0.0167042990494748,0.016129411158431868
5.6622649059623855,-0.0100494004738969,0.01579577573282262
5.666266506602641,-0.005853482301226882,0.020432000781979327
5.670268107242897,0.014066789878911043,0.01966734069089229
5.674269707883154,-0.007772860914067846,0.01746041157698973
5.67827130852341,0.004623716193830502,0.019281489744431647
5.6822729091636655,-0.008751611321781587,0.01783662903731057
5.686274509803922,-0.017563779888881876,0.01953298915068005
5.690276110444178,-0.0029517858007980344,0.019930769540271745
5.694277711084434,-0.008588633007487651,0.019759706440103546
5.69827931172469,0.0027681441309487633,0.020603950806910475
5.702280912364946,-0.010603229322170475,0.021074045468121853
5.706282513005203,-0.01085606834490527,0.02033403518480979
5.710284113645458,-0.005165561754573381,0.019401228472319464
5.714285714285714,-0.009385064217935352,0.01742448901485002
5.718287314925971,-0.009735636108020314,0.01705437722217494
5.722288915566227,-0.0013137487371267097,0.018366284453889957
5.7262905162064826,0.011659898954503525,0.016845483470563288
5.730292116846739,-0.02761951095387372,0.017254469894746795
5.734293717486995,0.026447280736916802,0.016339599583812526
5.738295318127251,0.01257743519210609,0.015575594319073363
5.742296918767507,0.002636661859474252,0.01612805874967533
5.746298519407763,-0.010954812963697094,0.01545051297604795
5.75030012004802,-0.004410676212232469,0.014440079177487264
5.754301720688275,0.014059574832066732,0.01554078724377773
5.7583033213285315,0.0036897517593484264,0.01849239467431245
5.762304921968788,-0.0278827797144106,0.019882088684960202
5.766306522609044,0.0011588465221631376,0.021387881000008494
5.7703081232493,0.006238694455270447,0.020456782011283554
5.774309723889556,0.0022081968979315216,0.021737466826723586
5.778311324529812,-0.013619449507807411,0.02076873230249572
5.782312925170069,0.012887554962770723,0.021269874121969325
5.786314525810324,0.011999046430381119,0.021039005194695915
5.7903161264505805,0.0018222482843470238,0.023932702721814865
5.794317727090837,-0.003951061090307027,0.022590989210222387
5.798319327731092,-0.012520732542924623,0.023361425064774434
5.802320928371349,-0.009136613796094048,0.021882844270655337
5.806322529011605,0.00019502104149820952,0.019692739055029388
5.810324129651861,-0.002910475337032291,0.017571517926477896
5.814325730292117,-0.009698363214283919,0.017481037449046194
5.818327330932373,0.014202818534661517,0.017353634335464583
5.822328931572629,0.006882257239836471,0.016257999608006193
5.826330532212886,-0.017830526156686313,0.01752669951602408
5.830332132853141,0.030366801009851768,0.016756574136021798
5.834333733493398,-0.010099720412714118,0.016209874537462355
5.838335334133654,-0.005625327195411979,0.012303322107404119
5.842336934773909,0.010257412922085367,0.01363920481894704
5.846338535414166,0.004080244785674291,0.014885075756825496
5.850340136054422,-0.007870579714148257,0.015616264257132592
5.854341736694678,-0.0013666615455892495,0.016275025718119014
5.858343337334934,-0.006262583259172788,0.019009398569295153
5.86234493797519,-0.0036120764501003117,0.018712276743545215
5.8663465386154465,-0.000537746914582542,0.019307212915121854
5.870348139255703,0.004115252139440874,0.020293749587947014
5.874349739895958,-0.014755791148457202,0.018973358507465364
5.878351340536215,-0.02661154716082279,0.01877530595914539
5.882352941176471,-0.027946608794959835,0.01895859201033407
5.886354541816727,-0.03276986871638725,0.01948298035476407
5.890356142456983,-0.027852571945317366,0.018530869648865772
5.894357743097239,-0.03851854437753539,0.01639316870074271
5.8983593437374955,-0.014472410403174232,0.01596031115041083
5.902360944377751,-0.012299074072611382,0.01547931374878283
5.906362545018007,-0.021814571127666167,0.014891859109927035
5.910364145658264,-0.010222222210273113,0.017683744236947886
5.91436574629852,-0.03707554617792608,0.021930111453969427
5.918367346938775,-0.0062596347475315185,0.024682617197962133
5.922368947579032,-0.03670569696885714,0.03006998637801786
5.926370548219288,-0.02496653072188563,0.03110274640413745
5.9303721488595444,-0.010289820701291303,0.032812962733333145
5.9343737494998,-0.030893594425090307,0.035245844179986295
5.938375350140056,-0.0317847627476871,0.03627990497758872
5.942376950780313,-0.030314974630740805,0.04199571022904544
5.946378551420568,-0.00041504079146662275,0.042331167580598454
5.950380152060824,-0.026191710645951816,0.04576490988272697
5.954381752701081,-0.021842750959088574,0.04550757107770915
5.958383353341337,-0.03732253120344217,0.04274542436541661
5.9623849539815925,-0.05536214972501682,0.04245190864570747
5.966386554621849,-0.07176972373068535,0.043067042487675435
5.970388155262105,-0.0731523789103595,0.04178371377098225
5.9743897559023615,-0.04231446568802495,0.03958464352952748
5.978391356542617,-0.07792861774504997,0.0417579436921934
5.982392957182873,-0.0765776542544689,0.04176235201540052
5.98639455782313,-0.09645207579668894,0.0460017996992313
5.990396158463386,-0.0938345470880747,0.04886247184405395
5.9943977591036415,-0.08675505274493563,0.05911056883354525
5.998399359743898,-0.08576056026387913,0.06481212011029144
6.002400960384154,-0.08852544208628228,0.06752595125996522
6.00640256102441,-0.09739106396547263,0.07810705354690009
6.010404161664666,-0.08967138850609829,0.08525365773065548
6.014405762304922,-0.0849504562504981,0.09536991472957954
6.018407362945179,-0.08387969101129915,0.10530662446968038
6.022408963585434,-0.0889726360405238,0.11881325879589118
6.02641056422569,-0.1018285273788822,0.12813193562739306
6.030412164865947,-0.08296822485818507,0.13856346910260328
6.034413765506203,-0.08138203663297179,0.14796031406674348
6.038415366146459,-0.09249310507377184,0.15332749356721026
6.042416966786715,-0.08373672729704358,0.15538942673433387
6.046418567426971,-0.06828128906623859,0.15706755809628706
6.050420168067227,-0.06927319666692834,0.1643665476495996
6.054421768707483,-0.06978801950111234,0.1681053395787416
6.058423369347739,-0.03662226401337927,0.16910505104886212
6.062424969987996,-0.055287093573248174,0.16674756344073324
6.066426570628251,-0.0539522193474657,0.1665377144223341
6.0704281712685075,-0.03870824011121238,0.1660655414728545
6.074429771908764,-0.02525651626228173,0.16333116468724052
6.07843137254902,-0.019231551142992426,0.16031943196964696
6.082432973189276,-0.007386937464023407,0.15600133866116822
6.086434573829532,0.024593327682081355,0.14770257763904862
6.090436174469788,0.030508634049465824,0.14306217762632562
6.094437775110045,0.05971819914525499,0.13838046161858075
6.0984393757503,0.039034432072972046,0.1305173307238229
6.1024409763905565,0.08565085092362594,0.11853875751802065
6.106442577030813,0.0800907719496376,0.1085680854557552
6.110444177671068,0.09209415817148488,0.09699263250185351
6.114445778311325,0.09989410817017648,0.08637070364973654
6.118447378951581,0.0874777045419375,0.0780439455788211
6.122448979591837,0.07691725832142525,0.0767043751797862
6.126450580232093,0.05860586052451028,0.0719739619379274
6.130452180872349,0.05720655431320475,0.07445547032036409
6.1344537815126055,0.04195601666371167,0.08125548375697844
6.138455382152862,0.006767689117088786,0.08701341163886851
6.142456982793117,0.007966859793379685,0.09420034940438793
6.146458583433374,-0.04456054759050182,0.10182962009184099
6.15046018407363,-0.03489265347500361,0.10991118895228537
6.154461784713885,-0.052348774097337306,0.1160707247993485
6.158463385354142,-0.0684165301042813,0.1238642765006902
6.162464985994398,-0.09481382930128325,0.12658041570068235
6.166466586634654,-0.09386662797298889,0.12286649147823572
6.17046818727491,-0.1407808971974556,0.11477074999404267
6.174469787915166,-0.1530705509417537,0.11563523008677068
6.1784713885554225,-0.1385149519986131,0.10769485115370288
6.182472989195679,-0.12978757437285335,0.10335502061636774
6.186474589835934,-0.11384748855198626,0.09965100139306611
6.190476190476191,-0.03604794484412692,0.09885626593490683
6.194477791116447,0.09192301299700735,0.09985571972891231
6.1984793917567025,0.30792097981751265,0.10984625363692925
6.202480992396959,0.5163848005421791,0.12462387529039892
6.206482593037215,0.7626357735668436,0.13734338702475896
6.2104841936774715,0.9040330275388035,0.1510833519082268
6.214485794317727,0.923423152629068,0.1678344231898777
6.218487394957983,0.8272993696589899,0.17222729896881636
6.22248899559824,0.6581268527230698,0.1796364652007858
6.226490596238496,0.4312164725255191,0.2223477607075899
6.230492196878751,0.16326575949697966,0.29493942222781433
6.234493797519008,-0.04138982638644514,0.4035398874295196
6.238495398159264,-0.19035632292453086,0.5301304165834192
6.2424969987995205,-0.24675552000812911,0.6599024235353101
6.246498599439776,-0.2667723201862323,0.7672982155433536
6.250500200080032,-0.2622305840810535,0.8463069002535777
6.254501800720289,-0.22359272188859822,0.8920957797665131
6.258503401360544,-0.20643918783051712,0.8973329530555377
6.2625050020008,-0.19382930332780413,0.8859980096745999
6.266506602641057,-0.1888507689763315,0.910137302559177
6.270508203281313,-0.17172870622469125,0.9343585877628059
6.2745098039215685,-0.17478786641215377,0.9279214807242646
6.278511404561825,-0.1783184361301331,0.8881627641508285
6.282513005202081,-0.17653052242358874,0.8038373486178014
6.286514605842338,-0.16776244145196204,0.6947089771017656
6.290516206482593,-0.1628112812834654,0.5805746712775379
6.294517807122849,-0.17973070592953902,0.4806987089004542
6.298519407763106,-0.16750548193104964,0.404608820179558
6.302521008403361,-0.15774352304190029,0.3644943085505843
6.3065226090436175,-0.15549281780399893,0.3668490800442953
6.310524209683874,-0.13726866435016863,0.38798986891686343
6.31452581032413,-0.15002325924793108,0.3844553860258465
6.318527410964386,-0.15537294287378975,0.37132353544355545
6.322529011604642,-0.16390441132225522,0.35770714568023415
6.326530612244898,-0.12943938154383466,0.34288878641312426
6.330532212885155,-0.1267343276830571,0.33258764063640595
6.33453381352541,-0.1186363489339309,0.32461782485080176
6.3385354141656665,-0.08158988444037077,0.31576973865480423
6.342537014805923,-0.07160368563832337,0.30969574163032476
6.346538615446179,-0.039807904548261545,0.3071371212443823
6.350540216086435,-0.035568790487801434,0.3054345635914575
6.354541816726691,-0.020334022039769084,0.2977881491241556
6.358543417366947,-0.0033354332005313524,0.28999826146975477
6.362545018007203,0.02863535453329346,0.28231320152472905
6.366546618647459,0.08136722916696233,0.2696072998019572
6.370548219287715,0.09827304673216666,0.252692406106514
6.374549819927972,0.11559820021908522,0.23271598447963432
6.378551420568227,0.15675964279483642,0.2136035312939649
6.382553021208484,0.19596838634999236,0.19245991098334586
6.38655462184874,0.22091323195713086,0.1715080123637241
6.390556222488996,0.26207795007375184,0.1525186469060366
6.394557823129252,0.28032143200714293,0.14094153346265348
6.398559423769508,0.29135487129201326,0.13067446467505262
6.402561024409764,0.2954473038273396,0.12850921393479423
6.40656262505002,0.31898978382553267,0.1332062361214788
6.410564225690276,0.34157619314308546,0.14530370434562612
6.4145658263305325,0.32472923857122976,0.16709880797645044
6.418567426970789,0.3220734383262373,0.19689572576781916
6.422569027611044,0.3222761586295849,0.23452055569771177
6.426570628251301,0.3121489235930751,0.27453455362278717
6.430572228891557,0.29404833844083883,0.317572009969111
6.434573829531813,0.26825062510636954,0.36695152464496134
6.438575430172069,0.24337380022819222,0.41590654998267074
6.442577030812325,0.22917834590654393,0.4539769833257512
6.4465786314525815,0.1916908410637179,0.4889872871574551
6.450580232092838,0.1768141807601314,0.5213190363010948
6.454581832733093,0.15125285105044953,0.5456274206349515
6.45858343337335,0.146778584868059,0.5609705971952844
6.462585034013606,0.0956283662354404,0.5683758412386535
6.466586634653861,0.09727539949029171,0.5654498500715133
6.470588235294118,0.06303989901813682,0.5574492609281277
6.474589835934374,0.0516853587420422,0.5418582784703599
6.47859143657463,0.046403568978113735,0.5232998583822472
6.482593037214886,0.012663312569520153,0.4970598641694342
6.486594637855142,0.02481670442247462,0.46658662235416565
6.490596238495399,-0.018847866607049207,0.4307471356961946
6.494597839135655,0.0016522980678424248,0.395580764518915
6.49859943977591,-0.03929463911163448,0.3550270364912483
6.502601040416167,-0.05105331268980057,0.3142813144772169
6.506602641056423,-0.06910224639219584,0.2755409058502824
6.5106042416966785,-0.06814781103844633,0.23555800231866586
6.514605842336935,-0.08367522129386346,0.201367935562162
6.518607442977191,-0.07369058588066797,0.16846480285138665
6.5226090436174475,-0.07844997596797817,0.13873604731780526
6.526610644257703,-0.09395302572921531,0.1172231227799284
6.530612244897959,-0.08961155897772904,0.10154836789314682
6.534613845538216,-0.07633282301462463,0.08939703879490819
6.538615446178472,-0.09101523910372997,0.08509810714399431
6.5426170468187275,-0.11061437206295126,0.08297055782457265
6.546618647458984,-0.09120564593367589,0.08463670228668731
6.55062024809924,-0.12911683127306928,0.08882363589455548
6.5546218487394965,-0.10541953754501676,0.09626205419235721
6.558623449379752,-0.07670232162320986,0.10829948391658466
6.562625050020008,-0.09492338347847704,0.11635842854708654
6.566626650660265,-0.1142037427410682,0.12764796034749237
6.57062825130052,-0.08559114965937045,0.1446934860033216
6.574629851940776,-0.09351037811313175,0.15281420513211455
6.578631452581033,-0.10132493269278958,0.1650261029054181
6.582633053221289,-0.0824551465693674,0.17070741288235022
6.586634653861545,-0.09701875252687929,0.1720456411694898
6.590636254501801,-0.10768432112165016,0.17380525192274476
6.594637855142057,-0.08610553316127527,0.18014294383097318
6.598639455782314,-0.09253604488040582,0.18126007619553172
6.602641056422569,-0.0644317176783231,0.18119083043854675
6.606642657062825,-0.09575430423746134,0.18302321674376099
6.610644257703082,-0.06907417582372694,0.1839809648794136
6.614645858343337,-0.0709217082632191,0.18492012690457843
6.6186474589835935,-0.08983015571409096,0.18446176321286786
6.62264905962385,-0.08724966000176247,0.18366392503007525
6.626650660264106,-0.07297369903591978,0.17794139506983842
6.630652260904362,-0.06684069998533432,0.1715294490642439
6.634653861544618,-0.06805637874962668,0.1745098535897691
6.638655462184874,-0.07980649657609468,0.17046612244454803
6.642657062825131,-0.08033332323691778,0.16369528005803313
6.646658663465386,-0.06260566213077891,0.16435841066680068
6.6506602641056425,-0.044857690869057845,0.16337901272329192
6.654661864745899,-0.059351345486122704,0.15894387613903166
6.658663465386155,-0.06789393966218589,0.15650122393821492
6.662665066026411,-0.06284545725063076,0.15197048340462305
6.666666666666667,-0.04859963069969694,0.14760940476416598
6.670668267306923,-0.08486366648722377,0.14670642679441034
6.674669867947179,-0.017725260680829094,0.14202425538979432
6.678671468587435,-0.016395431740109018,0.1389621846716819
6.682673069227691,-0.016038763518975572,0.13326747324968855
6.686674669867948,-0.02396989906892823,0.13308284253338637
6.690676270508203,-0.01896808828308348,0.1318194309738361
6.69467787114846,-0.01464635476322186,0.12536951729132206
6.698679471788716,-0.012014535927407368,0.12499626344091776
6.702681072428972,0.0003198957854161936,0.1163534518744963
6.706682673069228,-0.031904662618849125,0.10846202614660704
6.710684273709484,-0.004494206915652534,0.10032462968874487
6.71468587434974,0.0019362874933399029,0.09158980920996673
6.718687474989996,-0.005108324929683217,0.0819901141194665
6.722689075630252,-0.01779035539557672,0.07448758067644311
6.7266906762705085,-0.009072907052526264,0.06934974858817534
6.730692276910765,-0.013093541200582204,0.06011514012781002
6.73469387755102,-0.01882783551269831,0.05448514316937769
6.738695478191277,0.025374342210229363,0.045356941969029466
6.742697078831533,-0.0032726087340459765,0.03805714319825325
6.746698679471789,0.005537432801408105,0.02558058442084319
6.750700280112045,-0.008974323592661697,0.025590767538597896
6.754701880752301,-0.00760102006179387,0.02444526545836732
6.7587034813925575,0.02337212586416299,0.02398452842620925
6.762705082032813,0.0006601627271007164,0.023180127655758095
6.766706682673069,-0.020221012233948663,0.02418229255285636
6.770708283313326,0.0076905544622390435,0.02240303604061426
6.774709883953582,-0.02032361920057572,0.021389787820737055
6.778711484593837,-0.009901046927770555,0.02274364669856593
6.782713085234094,-0.0016060272877536548,0.0189416966479916
6.78671468587435,0.014057585638593724,0.021894871454300295
6.7907162865146065,-0.001349326329282567,0.02169524036574424
6.794717887154862,0.006380691864948305,0.024059399652809062
6.798719487795118,0.030569014468421703,0.02247943325151146
6.802721088435375,-0.0012285677057917892,0.02423944290931712
6.806722689075631,-0.00958091577678136,0.023740023790002805
6.810724289715886,-0.004042111485615162,0.02104592332756812
6.814725890356143,0.010555235597492996,0.019275581983925486
6.818727490996399,0.0017388561256966248,0.01897471253117194
6.8227290916366545,0.003867899018613853,0.019106628100278404
6.826730692276911,-0.0067715776496004645,0.02248480221037281
6.830732292917167,-0.00086515826055491,0.02148792507558499
6.834733893557424,-0.020659211440282464,0.01933049160584444
6.838735494197679,0.00754821415379251,0.019859548113455937
6.842737094837935,0.0020810763828976856,0.018347478476752666
6.846738695478192,0.0026796580118142797,0.01741642216539938
6.850740296118448,0.007956542282017262,0.014842164992583732
6.8547418967587035,-0.01578060073813646,0.014352605213530961
6.85874349739896,-0.0013699311145531075,0.014236707070739622
6.862745098039216,-0.0017571463993666318,0.015269435045226603
6.866746698679472,0.019651137921008404,0.016239160543063902
6.870748299319728,-0.0003112957731138278,0.01556654847427395
6.874749899959984,-0.0035749284727920653,0.011203665834696003
6.878751500600241,-0.03070066120986643,0.012256159230296805
6.882753101240496,0.019657232752418166,0.013226009428555518
6.8867547018807524,0.0002923985805605835,0.012807985822709082
6.890756302521009,0.019568510874558406,0.011431653217699485
6.894757903161265,0.0012720756613565551,0.014233768189466037
6.898759503801521,-0.008044901804910189,0.013677389537280163
6.902761104441777,-0.002925221154332549,0.013177320443896178
6.906762705082033,0.027838605995344132,0.017844649288975667
6.91076430572229,0.006337813653846312,0.01768790435191297
6.914765906362545,0.010971866042077161,0.016552837938685172
6.918767507002801,-0.02113091425984128,0.019288491752466434
6.922769107643058,-0.0026813944928921357,0.01906829604410926
6.926770708283313,-0.018162942211768344,0.019082118601437565
6.9307723089235695,0.0016754566824173538,0.01707108215107605
6.934773909563826,0.017123223768451983,0.02121171989973507
6.938775510204082,0.003291133830522999,0.02192829841503164
6.942777110844338,0.00016895858573385395,0.02057055304490515
6.946778711484594,-0.004343521413726787,0.023827478395610377
6.95078031212485,-0.0183295561318108,0.023687698049841416
6.954781912765107,0.008682902419328028,0.02172635496034358
6.958783513405362,-0.0048564465919429325,0.01891336862390203
6.9627851140456185,-0.0002384501883331094,0.021546305498450304
6.966786714685875,-0.014900351609732916,0.018999947505795305
6.97078831532613,-0.016069720708708865,0.01882738094456452
6.974789915966387,-0.004646456688435373,0.018248354021648826
6.978791516606643,0.009548058225298495,0.020658137329200216
6.982793117246899,-5.207072984205984e-05,0.01766150717350862
6.986794717887155,0.00716289033944055,0.017429768924285247
6.990796318527411,0.00019390258945449512,0.01575068271931919
6.9947979191676675,3.4850058631630414e-05,0.014776002157462038
6.998799519807924,0.009432775874866035,0.016870410327506222
7.002801120448179,0.017237661090121145,0.014755953504896927
7.006802721088436,0.01238666061235613,0.015987507078145956
7.010804321728692,-0.001453618445889666,0.013316974420082986
7.014805922368948,0.01254046956602194,0.013922654199166854
7.018807523009204,-0.021395565495639965,0.013926556324372348
7.02280912364946,-0.000594041505334483,0.013252527596458199
7.026810724289716,-0.0034067479169931575,0.011860756216162756
7.030812324929972,0.023208708636568192,0.013199023312739654
7.034813925570228,-0.01237984379753224,0.014377015356876036
7.038815526210485,0.00832258484046945,0.014567110689599413
7.042817126850741,-0.004193752918646943,0.014197941597584775
7.046818727490996,-0.0037412168413649928,0.015031092258416296
7.050820328131253,0.0009299556184726237,0.014397151067330683
7.054821928771509,-0.01738882484684645,0.013436432731285372
7.058823529411765,0.0039421425670594385,0.01705895065031439
7.062825130052021,-0.03029724241959904,0.01787506685253683
7.066826730692277,-0.010781912315464645,0.01914668051385516
7.0708283313325335,-0.010681832739407534,0.019797280147298948
7.074829931972789,-0.004370900510067117,0.018906918831933718
7.078831532613045,-0.02211361153220426,0.01635581639956657
7.082833133253302,-0.008475497862259868,0.01713833196362883
7.086834733893558,0.02039442569477428,0.017527625230517756
7.0908363345338135,-0.019430818378346787,0.02030541309874397
7.09483793517407,-0.012075009087581757,0.018645062015550818
7.098839535814326,-0.022107047857717544,0.020223149674737255
7.1028411364545825,-0.028881108146220264,0.02037397727152212
7.106842737094838,-0.03125267836389557,0.020202665317705072
7.110844337735094,-0.025482306775550356,0.019591887398665967
7.114845938375351,-0.0036429821216201535,0.021480350654278897
7.118847539015607,-0.011727454423523393,0.023863967087869555
7.122849139655862,-0.018385757219104782,0.02516766721337942
7.126850740296119,-0.03585780374509822,0.028480514113633122
7.130852340936375,-0.03307000750167166,0.030278314051181365
7.1348539415766306,0.0039533011577947705,0.03455064864918387
7.138855542216887,-0.020032445183845848,0.03379742226460273
7.142857142857143,-0.041429749156028296,0.03268064086248099
7.1468587434974,-0.017097642752657155,0.03284421310912975
7.150860344137655,2.0473903111015154e-06,0.035036632827640204
7.154861944777911,-0.03170718260765067,0.037186711037367086
7.158863545418168,-0.028932812310426673,0.04103416299638497
7.162865146058424,-0.019224712046720827,0.038462189099133834
7.1668667466986795,-0.03605769828664965,0.038556304829244006
7.170868347338936,-0.06035270792823856,0.0431484253406374
7.174869947979192,-0.04540577984381369,0.04236477704808946
7.178871548619448,-0.044669089924898105,0.03784706962033623
7.182873149259704,-0.06474752854057972,0.037918170173616435
7.18687474989996,-0.07937862534896523,0.03845795138797691
7.190876350540217,-0.0835930346141788,0.04089548554515923
7.194877951180472,-0.09211101068990171,0.04470159698169555
7.1988795518207285,-0.07569739965110645,0.05126671371250934
7.202881152460985,-0.07306373254114835,0.05276035517494335
7.206882753101241,-0.10377342520803895,0.0545748622761762
7.210884353741497,-0.08086569316627369,0.06408523156876228
7.214885954381753,-0.09194648704526984,0.07336907501529409
7.218887555022009,-0.08643345430346479,0.0799649054511503
7.222889155662265,-0.07468117217107581,0.09169965168736692
7.226890756302521,-0.07385186363693834,0.10354108441419198
7.230892356942777,-0.09164109612698591,0.11001071285536557
7.234893957583034,-0.10761289736746421,0.12171843408781473
7.238895558223289,-0.08218094818575344,0.13136126564011233
7.242897158863546,-0.07966149946034766,0.14010425067820037
7.246898759503802,-0.0688774865388975,0.14418420267582893
7.250900360144058,-0.08157558891986876,0.14876391039157238
7.254901960784314,-0.0919323942255061,0.15332912927717446
7.25890356142457,-0.06937589470514337,0.1575362352862932
7.262905162064826,-0.07016179945706412,0.16195307492984287
7.266906762705083,-0.081994421214688,0.16173217462424613
7.270908363345338,-0.054632478891945994,0.1597846303523243
7.2749099639855945,-0.06581639610747758,0.1587177545150499
7.278911564625851,-0.034847205148501266,0.16004931017439541
7.282913165266106,-0.03679130750379337,0.15819695375345127
7.286914765906363,-0.00105198323154736,0.15639954253256816
7.290916366546619,0.003147519171264464,0.152991646210719
7.294917967186875,-0.007603873539707631,0.15229722429282108
7.298919567827131,0.003893615499378325,0.1491608989355174
7.302921168467387,0.036310228396378416,0.1479038673564732
7.3069227691076435,0.05670833676504467,0.13901929229036733
7.3109243697479,0.05820856949550114,0.1279402885347853
7.314925970388155,0.09071096662366913,0.11524884643154613
7.318927571028412,0.08376517147241966,0.1032793513014725
7.322929171668668,0.12170718746622426,0.09369398912811736
7.326930772308923,0.08891190011594019,0.08154177852506063
7.33093237294918,0.07554435381050308,0.07284050275165949
7.334933973589436,0.07122277741492831,0.07085884825530372
7.3389355742296924,0.07281172979857045,0.06898893994216908
7.342937174869948,0.05091835290296958,0.0703525162118871
7.346938775510204,0.031094921392088914,0.07490990063562833
7.350940376150461,-0.006324598552561163,0.08365319895126866
7.354941976790717,-0.0003979676316134242,0.09211083114706763
7.358943577430972,-0.050886350616407644,0.0981731794563721
7.362945178071229,-0.036716958544663086,0.10915037572923696
7.366946778711485,-0.05994228203523082,0.12004832440075489
7.370948379351741,-0.08039052891791107,0.12682424231590494
7.374949979991997,-0.10675358282828953,0.13107948949013795
7.378951580632253,-0.11347109959368942,0.12638867548423047
7.3829531812725095,-0.13250709120563278,0.11757974035147774
7.386954781912765,-0.14275869325477658,0.1164342861105206
7.390956382553021,-0.1371662950301644,0.10798771184640499
7.394957983193278,-0.1289840939832687,0.10426096860255105
7.398959583833534,-0.07755237420828491,0.09779758058618471
7.4029611844737895,-0.015929461042379696,0.10058865136215184
7.406962785114046,0.16167519945626765,0.10652173701834478
7.410964385754302,0.36542770830697147,0.11610877317430336
7.4149659863945585,0.6166238582904524,0.12705095439777778
7.418967587034814,0.8094483506275298,0.14054318574386582
7.42296918767507,0.9136999790606545,0.15585651763681188
7.426970788315327,0.9232001210325401,0.16699906322934333
7.430972388955582,0.8095192747667433,0.16942873861729935
7.434973989595838,0.592553217094311,0.1867600365271059
7.438975590236095,0.3523253187983609,0.23818203422762507
7.442977190876351,0.08742594320228407,0.3252667394124013
7.446978791516607,-0.09975832476825296,0.4393171915457932
7.450980392156863,-0.2083908464754143,0.5655521740083621
7.454981992797119,-0.2620525209120024,0.6922224575588108
7.458983593437376,-0.27122829236658574,0.7981311294579699
7.462985194077631,-0.21613036388672904,0.8684949158181894
7.466986794717887,-0.24072998504937757,0.9021534038154772
7.470988395358144,-0.22107315988910298,0.8956522378650393
7.4749899959984,-0.1687040021312991,0.8991260346284802
7.4789915966386555,-0.18120963162916112,0.9292338084884244
7.482993197278912,-0.15867625448414605,0.9449363749448406
7.486994797919168,-0.18385982555639024,0.93020025161033
7.490996398559424,-0.1910976456226709,0.8675488915218849
7.49499799919968,-0.1795679010948745,0.7785812063818353
7.498999599839936,-0.20585236723396919,0.6702298527114378
7.503001200480193,-0.18164502256450718,0.5521999503755848
7.507002801120448,-0.17476126254779964,0.45391007988002774
7.5110044017607045,-0.17330393909917446,0.3860363635814852
7.515006002400961,-0.1719507739680665,0.3596823967204392
7.519007603041217,-0.16646625052062644,0.3759003209815865
7.523009203681473,-0.14818930174130815,0.38838536399680434
7.527010804321729,-0.17129390646188236,0.3879882559806814
7.531012404961985,-0.14745583221656156,0.375409676794819
7.535014005602241,-0.14457724196538443,0.3603188183756632
7.539015606242497,-0.12985820654962732,0.3536192494734003
7.5430172068827535,-0.12019261451514192,0.3428597460600676
7.54701880752301,-0.12142799093496572,0.33431729233742935
7.551020408163265,-0.07472914854978738,0.33110806697122586
7.555022008803522,-0.0860756997958107,0.3295568965360653
7.559023609443778,-0.03523039875362459,0.32780162528783313
7.563025210084034,-0.0296289492029347,0.32165643860152066
7.56702681072429,-0.02057475607007918,0.3120764224399798
7.571028411364546,0.0326888909069007,0.3027880257198285
7.575030012004802,0.06916368434989864,0.28958106462392796
7.579031612645059,0.09643637929338597,0.27285563708099114
7.583033213285314,0.12378001640195749,0.25898207557684305
7.5870348139255706,0.14145222835420168,0.23738248603106327
7.591036414565827,0.18803701460441788,0.21511831441179521
7.595038015206082,0.22011789342621113,0.19229572008658352
7.599039615846339,0.21267224793884132,0.17422736709042924
7.603041216486595,0.2667544013861612,0.158250584918281
7.607042817126851,0.28823910554360815,0.15026933638048792
7.611044417767107,0.3085556647542187,0.14701591407570166
7.615046018407363,0.29878442660873644,0.14882962951703022
7.6190476190476195,0.33799963130918964,0.15944289539868006
7.623049219687876,0.3307743453995111,0.17488148979402282
7.627050820328131,0.3194967870007405,0.19646067375656617
7.631052420968388,0.3294469649145445,0.22472521875374085
7.635054021608644,0.3351511435142109,0.26430473706329893
7.6390556222488994,0.3060420648666596,0.3079387494467179
7.643057222889156,0.2733219973993672,0.35146059060660023
7.647058823529412,0.24564890246356225,0.39922199847738876
7.6510604241696685,0.24132892723560256,0.4401471669443526
7.655062024809924,0.23960041162934748,0.4750417111005707
7.65906362545018,0.19734754067156401,0.5072153025061892
7.663065226090437,0.17705620424970864,0.5375166698242749
7.667066826730693,0.13096560439743885,0.555976837091766
7.671068427370948,0.13755922562541315,0.564299842390936
7.675070028011205,0.09514264252221033,0.5694585585399126
7.679071628651461,0.09480586354809287,0.5654811143150126
7.6830732292917165,0.06171621646255201,0.5578723007656416
7.687074829931973,0.05082628774206404,0.54047541336542
7.691076430572229,0.018746175848485373,0.5214328101808254
7.695078031212486,-0.0028610554911961323,0.48904535931868137
7.699079631852741,0.011333710263634516,0.45881967472542246
7.703081232492997,-0.020103322721485305,0.423722744339607
7.707082833133254,-0.031606923534726335,0.3870165697358324
7.71108443377351,-0.06742034394366973,0.3442416674843568
7.7150860344137655,-0.04860435950002381,0.30431688524365746
7.719087635054022,-0.05709827189795364,0.2644922147092645
7.723089235694278,-0.08802845775337167,0.22651160069601828
7.7270908363345345,-0.06644315556712949,0.19053220687693892
7.73109243697479,-0.08570970319085686,0.15619509192328318
7.735094037615046,-0.0806730566764634,0.13026739214633376
7.739095638255303,-0.10208515904528309,0.11311646245928154
7.743097238895558,-0.09430589242957717,0.10023224814992523
7.7470988395358145,-0.09117315725350629,0.08764530665030341
7.751100440176071,-0.08358540493110361,0.08653239630864644
7.755102040816327,-0.08315038949697215,0.08209546473390414
7.759103641456583,-0.08975674399607746,0.08584889543327279
7.763105242096839,-0.11146617567777153,0.09051798667723854
7.767106842737095,-0.09070649790461965,0.10355515386878356
7.771108443377352,-0.1151249815633698,0.11786036353463725
7.775110044017607,-0.107031286333114,0.13035007937901594
7.779111644657863,-0.08861473960973743,0.14028092431721048
7.78311324529812,-0.07739323352061571,0.14834414704449872
7.787114845938375,-0.10980939390969295,0.1518383507264998
7.791116446578632,-0.08817134482498046,0.16167216409974666
7.795118047218888,-0.10100184267217466,0.16692968038627815
7.799119647859144,-0.09457965401153633,0.17116853593346462
7.8031212484994,-0.09364487047073414,0.17751795641462023
7.807122849139656,-0.10480306471900563,0.17797240694950422
7.811124449779912,-0.09724555313075506,0.1774593265014201
7.815126050420169,-0.1083488489210296,0.17866767027394098
7.819127651060424,-0.09077849327854493,0.177708009864157
7.8231292517006805,-0.09139968694360395,0.17924556420140747
7.827130852340937,-0.10159509331698939,0.18096545395658512
7.831132452981193,-0.09807071234835629,0.1826071622879711
7.835134053621449,-0.08651208712918118,0.18496093949232228
