time,ecg_signal,mechanical_signal
# Condition: tachycardia
# Heart Rate: 121.11 bpm
# Duration: 10.0 s
# Sampling Rate: 250 Hz

0.0,-0.007778336512607128,0.0
0.004001600640256103,-0.01567897560859862,0.0
0.008003201280512205,0.01581789315689275,0.0
0.012004801920768308,-0.015698278596476982,0.0
0.01600640256102441,0.0007321553096822474,0.0
0.020008003201280513,-0.011792044808687523,0.0
0.024009603841536616,-0.0027762124311612466,0.0
0.028011204481792718,-0.010076459568880534,0.0012118268009367532
0.03201280512204882,-0.015894768491429484,0.003654534547373015
0.03601440576230493,-0.03394389638388515,0.0061188849686756065
0.040016006402561026,-0.01962723860335975,0.008564600026252398
0.044017607042817125,0.006574918393034543,0.008678666244046273
0.04801920768307323,-0.0003288851203864469,0.01051580917478134
0.05202080832332934,-0.0018415427574165746,0.010948329498853479
0.056022408963585436,-0.01249896831800852,0.012518192636599392
0.060024009603841535,-0.019375386736628007,0.014994519859184827
0.06402561024409764,0.021373667955104887,0.020282812966527505
0.06802721088435375,0.006864197690533672,0.02334064078477391
0.07202881152460985,0.01637628790055779,0.024364980926105832
0.07603041216486595,0.027609612953394324,0.023204392819029605
0.08003201280512205,-0.020351016457157735,0.02104858843102883
0.08403361344537816,-0.012232456681068767,0.02053151616711536
0.08803521408563425,0.020020280154391758,0.021104391638233813
0.09203681472589036,-0.0012515781374833504,0.024320238393520818
0.09603841536614646,0.0035337411622910256,0.023552503904402375
0.10004001600640257,-0.001262681904453519,0.025671329172744128
0.10404161664665867,-0.007643714085170557,0.02840290875172626
0.10804321728691477,-0.012126635617763344,0.029097170398511115
0.11204481792717087,0.011156537672004726,0.025714634238478556
0.11604641856742698,0.01048151085104482,0.02577586819057748
0.12004801920768307,0.0227854115369118,0.02494651780419001
0.12404961984793918,0.009839406122864207,0.025445818707208197
0.12805122048819528,0.014498085210726588,0.02535563501632561
0.13205282112845138,0.01730974329428261,0.02459921014383799
0.1360544217687075,-0.01276207706525838,0.02346989015814143
0.1400560224089636,-0.00010163783801414823,0.021878111210849097
0.1440576230492197,0.003969033322140048,0.022441670916473016
0.1480592236894758,-0.02132014215520296,0.023440181045272745
0.1520608243297319,0.008511735123167408,0.02067166969833851
0.156062424969988,0.004714266549018317,0.01975981162470419
0.1600640256102441,0.010842649372455982,0.020550828056554046
0.1640656262505002,0.02497805375506244,0.019420035500099627
0.16806722689075632,-0.00352261928633193,0.01924088042341769
0.1720688275310124,0.014552058407435946,0.019308696813810127
0.1760704281712685,0.0016547104930954965,0.022433551061397168
0.18007202881152462,-0.008093850315995419,0.022568784495424692
0.1840736294517807,-0.007204962268687879,0.021413973633053158
0.18807523009203683,-0.014626170538866999,0.021365071370560772
0.19207683073229292,0.001148003969314916,0.023623561882451714
0.19607843137254902,-0.010033228345831256,0.020622513024216423
0.20008003201280514,-0.023823914099633737,0.021356721210334828
0.20408163265306123,0.010737845339868875,0.019355786219662618
0.20808323329331735,-0.01708388788713015,0.017919995149483014
0.21208483393357344,0.006884583266008435,0.017054223832511654
0.21608643457382953,0.016542016364059536,0.019317075017909423
0.22008803521408565,-0.008517142902006222,0.01887757243654875
0.22408963585434175,0.0034637830256778915,0.017119126445957988
0.22809123649459784,0.005276457053440109,0.019504689070350373
0.23209283713485396,0.0020251866576876036,0.020443133197121672
0.23609443777511005,0.006599590097024796,0.02141548764474196
0.24009603841536614,-0.005623505557248159,0.01859661340022246
0.24409763905562226,0.019238426243940305,0.02062497181403706
0.24809923969587835,0.011474947901378008,0.01968476148255871
0.25210084033613445,0.0009168165406282991,0.019966606138709625
0.25610244097639057,-0.009487909293906064,0.019527670042436416
0.2601040416166467,-0.002329340652097313,0.018720686325792768
0.26410564225690275,0.00044432205752697963,0.017470184334327895
0.26810724289715887,0.0054269539690729165,0.018167445601322715
0.272108843537415,0.008091371876671614,0.019601570430298036
0.27611044417767105,-0.02506392005249307,0.017677661869816837
0.2801120448179272,-0.0014411467363210657,0.016147593597198178
0.2841136454581833,0.008606961818455659,0.014964177268566558
0.2881152460984394,-0.0031121425382811827,0.01425449273957252
0.2921168467386955,0.008617954575357887,0.011746550667083735
0.2961184473789516,-0.0003210131501819898,0.011265114339044032
0.3001200480192077,-0.005711521362246591,0.01198607005807999
0.3041216486594638,0.004367048107569422,0.015068860053849857
0.3081232492997199,-0.012978128555958665,0.014977869489430091
0.312124849939976,0.00018847137261617007,0.015290608189733134
0.3161264505802321,-0.0006651245427770614,0.014899350109251154
0.3201280512204882,0.0024540138921596622,0.013244732546007687
0.32412965186074433,0.01660745991373401,0.011507004042555646
0.3281312525010004,-0.010027878059873955,0.012253995612796956
0.3321328531412565,0.019640838050299033,0.011456190475487522
0.33613445378151263,-0.007198471429938549,0.013115219569751405
0.3401360544217687,-0.02378635385489216,0.01307535928387789
0.3441376550620248,0.002532963872351087,0.012333489539502373
0.34813925570228094,-0.005274266009055966,0.011455216726152897
0.352140856342537,-0.006274943020866946,0.010137741579559281
0.3561424569827931,0.007128135413932937,0.01147551233985733
0.36014405762304924,0.0033383881751020235,0.01319453631295169
0.36414565826330536,-0.026923456565143708,0.013831166376504032
0.3681472589035614,-0.004452459329984868,0.016194328827042997
0.37214885954381755,-0.0011475885920784945,0.016538939935489046
0.37615046018407367,0.004044213981298742,0.016470817689171902
0.38015206082432973,0.00853879901582255,0.01676805838910273
0.38415366146458585,-0.01439349346978768,0.015856658057770593
0.38815526210484197,0.005457425206536187,0.01634739969588133
0.39215686274509803,0.026559853106173117,0.02043831944987049
0.39615846338535415,-0.02342969027322424,0.020749667478827734
0.4001600640256103,-0.009595589187683686,0.018341095109112113
0.40416166466586634,0.002125788733754701,0.017408869499373154
0.40816326530612246,-0.009812805286444865,0.015679226094871594
0.4121648659463786,-0.024840528601706525,0.016800175352735133
0.4161664665866347,-0.006691791773674567,0.01394461787813438
0.42016806722689076,0.03568216215061116,0.017687889755031497
0.4241696678671469,0.010485551987821862,0.020516416094826254
0.428171268507403,0.02055582134973268,0.021033756533216166
0.43217286914765907,-0.029320371553687708,0.020254415376557318
0.4361744697879152,-0.002666295881239617,0.02126309790954521
0.4401760704281713,-0.009404374527996242,0.020938587916126614
0.44417767106842737,-0.0019082060878801179,0.021287464962918307
0.4481792717086835,0.015061434239372055,0.026667782686292867
0.4521808723489396,-0.01738200363512458,0.027671311656471208
0.4561824729891957,0.0025488244534861166,0.02954350498573703
0.4601840736294518,0.002313807927598802,0.03186903961477593
0.4641856742697079,-0.009286992707908392,0.03143419531152513
0.468187274909964,-0.006905041561516767,0.02876145562094533
0.4721888755502201,0.0019948060675746082,0.025408513601856093
0.4761904761904762,0.006724036652202279,0.02626006553878604
0.4801920768307323,0.019345767542215935,0.028636909233882738
0.4841936774709884,0.004382731303246879,0.0275052165331873
0.4881952781112445,0.0046690096800328495,0.02399566358367754
0.49219687875150064,-0.007356203068736023,0.02439998320148057
0.4961984793917567,0.0234544451040676,0.019916648502971257
0.5002000800320128,-0.017245793024363232,0.0185938317992425
0.5042016806722689,0.000563218432571432,0.016438907365967235
0.508203281312525,-0.01712584708183397,0.014884912826101116
0.5122048819527811,-0.001651145035094721,0.015152325073320594
0.5162064825930373,-0.011652573176635334,0.014414578380865857
0.5202080832332934,0.011180975769033465,0.015263349675618034
0.5242096838735495,-0.0038518727669732164,0.016570939735511495
0.5282112845138055,0.01972461216042107,0.01654971878827875
0.5322128851540616,0.0018360843627169803,0.016240371077705183
0.5362144857943177,-0.008140453226592525,0.018548014362941553
0.5402160864345739,-0.006397063927920712,0.017358386626626938
0.54421768707483,0.004908042610534538,0.018098028841922003
0.5482192877150861,0.005082038588574665,0.019529189170886713
0.5522208883553421,0.00019191943115524278,0.019081720079370566
0.5562224889955982,0.013235719051521598,0.019140742218742846
0.5602240896358543,0.01682112747350951,0.01874398707578191
0.5642256902761105,-0.02281049774066692,0.019284821008698234
0.5682272909163666,0.01084433695559299,0.01913539181972144
0.5722288915566227,0.02459267769049676,0.016245952983256078
0.5762304921968788,0.015500445632299766,0.014350899509880284
0.5802320928371348,0.007348225464808756,0.014293052940713738
0.584233693477391,-0.004907661359813434,0.013686990012147057
0.5882352941176471,-0.006896941535355211,0.016050399111099654
0.5922368947579032,-0.0004769498421355904,0.01778874920788557
0.5962384953981593,-0.002997083521701096,0.017736302526554476
0.6002400960384154,0.01608615162950255,0.020967618533336795
0.6042416966786714,0.011617263756329288,0.02030951403990166
0.6082432973189276,0.022730670195184953,0.021168278675146392
0.6122448979591837,0.0005869805499621359,0.020664625507188995
0.6162464985994398,0.028443516823685965,0.020742503994561644
0.6202480992396959,0.004606896791741318,0.020052161404538745
0.624249699879952,0.0104066395582579,0.019727335598315122
0.6282513005202081,-0.013426842987563378,0.02220357926906025
0.6322529011604642,0.02191206774550705,0.021951431846580754
0.6362545018007203,0.006102765898879843,0.022872109711288707
0.6402561024409764,0.0013420263085203608,0.01940979438215312
0.6442577030812325,0.021696849593403914,0.022151660564478166
0.6482593037214887,0.0037516999417561074,0.019037973609496592
0.6522609043617448,0.00867643770756364,0.018244383526412184
0.6562625050020008,0.003937643485576115,0.01919140241853374
0.6602641056422569,-0.012804683549004435,0.021840605800105713
0.664265706282513,-0.0030027018237390618,0.021716877118610388
0.6682673069227691,0.02290949258317732,0.021851651802776546
0.6722689075630253,-0.005319141479429701,0.024764983934937253
0.6762705082032814,-0.011956441586343914,0.022843336664233008
0.6802721088435374,-0.002186129340835783,0.022385170343322238
0.6842737094837935,0.0062105401130566765,0.019457308659720313
0.6882753101240496,-0.029106898744744734,0.021360767055500395
0.6922769107643058,-0.014526264234970294,0.01739721245682234
0.6962785114045619,-0.004209484656842635,0.020248667401054403
0.700280112044818,-0.010064066854576907,0.01945606007278495
0.704281712685074,-0.004323942991849722,0.019226978723161585
0.7082833133253301,0.01071517558127582,0.016153773958407076
0.7122849139655862,-0.0019870449246569568,0.016170564654075445
0.7162865146058424,-0.012239291284598412,0.020496196039175983
0.7202881152460985,0.029195425980006788,0.01937905389680781
0.7242897158863546,0.007486864071504381,0.01945037451734176
0.7282913165266107,0.004221244753729253,0.01966656035442739
0.7322929171668667,-0.005072025985607507,0.019726743928914332
0.7362945178071229,0.027459808458819877,0.019401208802996294
0.740296118447379,0.02558013470639245,0.019242974423592792
0.7442977190876351,-0.01381393504277424,0.01758060922712046
0.7482993197278912,0.003753023178094062,0.021300417622873713
0.7523009203681473,-0.01738898278747123,0.020604079297504532
0.7563025210084033,-0.00830007853498021,0.02092114032930054
0.7603041216486595,-0.0007481016828618805,0.020743765394357596
0.7643057222889156,0.027215306440361565,0.020487156780316373
0.7683073229291717,0.0030616604894846905,0.022209295758186712
0.7723089235694278,-0.01170057308756107,0.02370562217284811
0.7763105242096839,-0.015954100310352277,0.02272239242229043
0.7803121248499401,-0.0029627023815480954,0.024757861748408938
0.7843137254901961,0.0011309413847105348,0.024381601435831738
0.7883153261304522,0.008172020877529985,0.02418858013586441
0.7923169267707083,-0.010069099500564942,0.026521770080471976
0.7963185274109644,-0.003491437532383914,0.022450257183147384
0.8003201280512205,-0.01869575397983697,0.02310673244732888
0.8043217286914767,-0.010166826202879268,0.02493465398196429
0.8083233293317327,0.0016070197264551128,0.024606031676783137
0.8123249299719888,0.022981716196645893,0.020504122906573254
0.8163265306122449,-0.009613939738794784,0.017792023879052203
0.820328131252501,0.016658626268082368,0.017208596809807464
0.8243297318927572,-0.012477629749036398,0.017167843045079217
0.8283313325330133,-0.012301988724833004,0.017371431608139483
0.8323329331732694,0.004783135613667168,0.01766226176840315
0.8363345338135254,0.0020294668443422534,0.01779607700040647
0.8403361344537815,-0.0026021632068404595,0.0171365043381536
0.8443377350940376,-0.002175995943255842,0.0181573174115744
0.8483393357342938,0.0022577140655845288,0.018929757857534427
0.8523409363745499,-0.024399384483685466,0.0183881407402958
0.856342537014806,0.017921994412289963,0.019843155893480766
0.860344137655062,-0.0003058096045217864,0.020412149899037457
0.8643457382953181,-0.010501281881456302,0.019455170011171422
0.8683473389355743,0.01736846443073475,0.018291857841923324
0.8723489395758304,0.010760301980163006,0.018086918473436436
0.8763505402160865,-0.010164033235948501,0.015525952219190073
0.8803521408563426,-0.018091248907270575,0.0177433152173865
0.8843537414965986,-0.00023939465599052777,0.020285108510702445
0.8883553421368547,0.01458817766013243,0.01675231312452495
0.8923569427771109,0.021275361312554933,0.01689055669219974
0.896358543417367,0.009331539243624757,0.017001146007593285
0.9003601440576231,0.004421716038287477,0.016733594737094685
0.9043617446978792,0.009172687915672032,0.016400511724237007
0.9083633453381353,-0.009007348541738718,0.018473850712972247
0.9123649459783914,0.004694984763251887,0.018194966217561157
0.9163665466186475,0.010127304882000912,0.020062328670621965
0.9203681472589036,0.006248546189029173,0.023037916419735974
0.9243697478991597,0.01194572619856199,0.024139983799052418
0.9283713485394158,0.016464475982209337,0.021027560724642735
0.932372949179672,0.0003249672471874294,0.019664461547199474
0.936374549819928,-0.0021697413123721405,0.021020118772420222
0.9403761504601841,-0.013168904765977932,0.02011552606797273
0.9443777511004402,0.007675749937217832,0.018987388811787916
0.9483793517406963,0.009460734155830972,0.018284479317178637
0.9523809523809524,0.020647747113177295,0.018562058370185146
0.9563825530212086,-0.004293544771251369,0.018308615101636363
0.9603841536614646,-0.009598594419173353,0.0183219468929866
0.9643857543017207,-0.011745379890708035,0.016387215222847154
0.9683873549419768,0.009942674968256723,0.015124268924773122
0.9723889555822329,-0.013466986474104272,0.014866305045869683
0.976390556222489,-0.012367861021001972,0.015651359433186022
0.9803921568627452,-0.012056213762536544,0.017439117555418732
0.9843937575030013,0.02156256812161887,0.016704729973424204
0.9883953581432573,0.004335034771754217,0.01746868838442205
0.9923969587835134,-0.008234585965369112,0.01772077656012635
0.9963985594237695,-0.006921753497374295,0.018296303763600252
1.0004001600640255,0.003408842262783377,0.01853330867719773
1.0044017607042817,-0.02501923370083273,0.017895076094297354
1.0084033613445378,-0.022612634966671853,0.019722746948168775
1.012404961984794,0.021521688403519142,0.022744054554914763
1.01640656262505,0.005392747248807411,0.021367780797969377
1.0204081632653061,-0.004087183009726423,0.021454844719046223
1.0244097639055623,-0.015476136173243654,0.02105928394535239
1.0284113645458184,-0.009617062218925424,0.018373546849426225
1.0324129651860745,-0.003372877306448572,0.02160250785825336
1.0364145658263306,0.0017509726444371412,0.02363003175084595
1.0404161664665867,-0.018975277902392847,0.025153132821473162
1.0444177671068429,0.0028321356756323213,0.02444427632705214
1.048419367747099,0.020970452288203274,0.022982948804486186
1.0524209683873549,-0.030700587207768113,0.023467202877071908
1.056422569027611,-0.011260095122866602,0.023087194991413658
1.0604241696678671,-0.008461947555491175,0.02025333009049949
1.0644257703081232,0.0006968091849147473,0.019850745844357268
1.0684273709483794,0.013045174344557063,0.021524093137675646
1.0724289715886355,-0.0006058961802265943,0.020886950674895464
1.0764305722288916,0.004869089669259306,0.023622963659408303
1.0804321728691477,0.020081032234987813,0.024508090760060403
1.0844337735094038,-0.006967074547219102,0.022739420554145847
1.08843537414966,0.01173341977662624,0.020704776778156245
1.092436974789916,0.029965690398410117,0.019973172585905016
1.0964385754301722,-0.02969528455433551,0.021368783840896664
1.1004401760704283,-0.00240019024833979,0.01905207314951778
1.1044417767106842,-0.017524047864900767,0.018312362238775904
1.1084433773509403,-0.003013519215065653,0.020915411091675287
1.1124449779911965,0.014079968747084363,0.02172805426698189
1.1164465786314526,-0.01401990205324246,0.02059980817591067
1.1204481792717087,-0.009071006263391135,0.024827083347723093
1.1244497799119648,0.002325592242593275,0.026186369559709436
1.128451380552221,0.002182581669000809,0.02177730607203458
1.132452981192477,0.004717625194984303,0.022753199285229335
1.1364545818327332,-0.010126994296908515,0.021904360786765095
1.1404561824729893,0.03031235265609607,0.02398939161724715
1.1444577831132454,0.002985284962718642,0.024141249428886714
1.1484593837535015,0.03475860183377768,0.02546007219452975
1.1524609843937577,0.004620483491609544,0.025063807730431053
1.1564625850340136,-0.003164859222977783,0.02227531663648703
1.1604641856742697,-0.006312620407507478,0.021924863424804843
1.1644657863145258,0.007352041120967263,0.021674590188763387
1.168467386954782,0.005602488263261349,0.021728598473704026
1.172468987595038,-0.0018566680555003796,0.017567311120595924
1.1764705882352942,-0.0008147363832871212,0.0226085934476616
1.1804721888755503,0.0007949986038672648,0.020598281202900432
1.1844737895158064,0.006779133912307854,0.020621859236242737
1.1884753901560625,-0.0017035527135113096,0.019411744338943705
1.1924769907963186,0.0016067317179573933,0.018372924204387468
1.1964785914365748,-0.0028955436905138366,0.017832546057302136
1.2004801920768309,-0.01934540235394953,0.01775948996148967
1.2044817927170868,-0.013023592837401355,0.017546386353272637
1.208483393357343,-0.018377069404986502,0.016935260307815714
1.212484993997599,-0.007166788904084984,0.01641368002734342
1.2164865946378551,-0.02027558853738938,0.011956568862652787
1.2204881952781113,0.01594163359064202,0.01174179700676659
1.2244897959183674,0.006339126856074932,0.006777688324244299
1.2284913965586235,0.011477362598967105,0.009071758693928239
1.2324929971988796,0.016524540995538524,0.01060770119241628
1.2364945978391357,-0.016831015462308443,0.012487283364000592
1.2404961984793919,-0.01450837142281937,0.012458421974295088
1.244497799119648,-0.004373340564790147,0.014744419261272953
1.248499399759904,0.020355068584338554,0.016938788031265153
1.2525010004001602,0.016355556727702843,0.01779946105857804
1.2565026010404161,-0.006388683187290148,0.019463721143705783
1.2605042016806722,0.01636057921202626,0.020982007922679225
1.2645058023209284,0.007129109920501726,0.0233387926618651
1.2685074029611845,-0.0025090244804978823,0.02534880505269455
1.2725090036014406,0.024679360839666202,0.02557903858086423
1.2765106042416967,-0.010720958838548367,0.025736339643373306
1.2805122048819528,-0.0001267620414897122,0.0262554433277506
1.284513805522209,0.00380882777208411,0.024387711365390977
1.288515406162465,0.001218359000805628,0.02582005894758905
1.2925170068027212,0.024842864001576325,0.02377190185126582
1.2965186074429773,-0.0026486423438272333,0.021679167022964612
1.3005202080832334,0.009784394244402287,0.02453648581352405
1.3045218087234896,0.0021889904522443557,0.024418641805654364
1.3085234093637454,0.014206904856296769,0.02186394801217479
1.3125250100040016,-0.019930979351656233,0.019835154834576308
1.3165266106442577,0.017110887245849766,0.017764635873140876
1.3205282112845138,0.00017077687125331432,0.02095368755056518
1.32452981192477,-0.02155386516872148,0.018195112907737152
1.328531412565026,0.005751724602858435,0.01717135791877941
1.3325330132052822,0.02704020779611307,0.01651706632265482
1.3365346138455383,-0.00047663221213785194,0.0161815343871911
1.3405362144857944,0.01687620033454115,0.01817600305714662
1.3445378151260505,0.005904016395681736,0.020450901888532214
1.3485394157663066,0.00965271556888677,0.01663258432695673
1.3525410164065628,0.0046740839574735465,0.018320298171898255
1.3565426170468189,-0.013664470453231301,0.01919663983892234
1.3605442176870748,0.021665677351060366,0.022815975270120976
1.364545818327331,0.0009891723287668453,0.022700417862695426
1.368547418967587,-0.005096300045111407,0.02145925061181669
1.3725490196078431,0.015162303940886761,0.021966421973806154
1.3765506202480993,-0.019432220626834643,0.021945907079928408
1.3805522208883554,-0.010949088868014774,0.02233307249859981
1.3845538215286115,-0.030641539641867683,0.022248563870524967
1.3885554221688676,0.005419576427332882,0.02251882133801845
1.3925570228091237,0.006950109017912595,0.020007136971840953
1.3965586234493799,0.016338553019134134,0.02077450940179972
1.400560224089636,-0.02679850860336419,0.019778735410385936
1.404561824729892,0.017813256516662986,0.021910089807960893
1.408563425370148,-0.0051180780476497365,0.01940317214728561
1.4125650260104041,-0.004967015548669625,0.024102717250775934
1.4165666266506602,-0.009349465837573755,0.022317831256642686
1.4205682272909164,0.013039989300355811,0.022480807372914705
1.4245698279311725,0.022678008224288598,0.023522428161085098
1.4285714285714286,0.003849183074060419,0.026969305356194965
1.4325730292116847,0.019166249165444325,0.027615665941761125
1.4365746298519408,0.003208720989151193,0.025037630870311883
1.440576230492197,0.0014976904490865387,0.025657359396583503
1.444577831132453,0.014584249781423484,0.02631998183362766
1.4485794317727092,-0.032750299203986644,0.02598933558847648
1.4525810324129653,-0.004949236934534399,0.026495013427737826
1.4565826330532214,-0.012798012239778543,0.025388882815968215
1.4605842336934773,0.0035810979537675195,0.023601088661610772
1.4645858343337335,0.007914402650807293,0.023256648193055198
1.4685874349739896,-0.0035525861757505425,0.022407188036514095
1.4725890356142457,0.011798257885582641,0.02213387616874106
1.4765906362545018,-0.0033600360107111852,0.023061136046442113
1.480592236894758,0.02294178166362848,0.02105698468681245
1.484593837535014,-0.006421718046881575,0.022253480887300545
1.4885954381752702,0.017938429418623173,0.022037561701666177
1.4925970388155263,-0.012025242648608719,0.021813985873088606
1.4965986394557824,-0.009958980662600755,0.020335894849506216
1.5006002400960385,0.007080942740136748,0.018640882937052267
1.5046018407362947,0.010133482010358661,0.018564676215987248
1.5086034413765508,-0.005291244047261767,0.019152885720897666
1.5126050420168067,-0.004003573800190601,0.01965345495438067
1.5166066426570628,0.006020373373664043,0.022214841708244823
1.520608243297319,-0.023462155130873567,0.02181616090775399
1.524609843937575,-0.007935902230844245,0.01826538490412223
1.5286114445778312,-0.013274210669945182,0.018597494246878798
1.5326130452180873,-0.006296534877871178,0.018182373463831718
1.5366146458583434,-0.006641158198798717,0.018448805864416943
1.5406162464985995,-0.016885146133938156,0.017839517849251668
1.5446178471388556,-0.00017351303051247962,0.018223987029852576
1.5486194477791118,0.004826694069288693,0.02004116519671467
1.5526210484193679,0.0009686002380727305,0.020754062782730755
1.556622649059624,0.0070648466230950405,0.01924790248597375
1.5606242496998801,0.013088092143282031,0.019228399560253438
1.564625850340136,-0.0050007258792514825,0.017468339935750764
1.5686274509803921,0.029662529146474853,0.0182254891390467
1.5726290516206483,0.007545807588318915,0.01670096112241438
1.5766306522609044,0.0015949219470635133,0.01634976020035578
1.5806322529011605,-0.0005272776824712789,0.014921916426681059
1.5846338535414166,-0.01096296300559765,0.015198235036980529
1.5886354541816727,0.0011101707739984133,0.016613558581277766
1.5926370548219289,0.009285703964523193,0.016454702486631508
1.596638655462185,0.00042666079802200507,0.017420690445079844
1.600640256102441,-0.002082972479021854,0.017359915606919032
1.6046418567426972,0.0013989385281469925,0.015540339523096124
1.6086434573829533,-0.009745876919391118,0.01464151745753606
1.6126450580232095,0.006950470443405088,0.015314833517442655
1.6166466586634654,-0.014703044864926188,0.012857169479083325
1.6206482593037215,-0.0035568420602493833,0.014276804277756478
1.6246498599439776,-0.026813411885346233,0.01359130060553914
1.6286514605842337,3.1027750402413174e-05,0.013764914352593324
1.6326530612244898,-0.01818068414672006,0.012882193571617346
1.636654661864746,0.008810646218328938,0.012361492779584846
1.640656262505002,-0.02282756756826017,0.01266525345051912
1.6446578631452582,-0.012478843492252829,0.010334638935295922
1.6486594637855143,0.006700299643396848,0.009713177607788085
1.6526610644257704,0.01621711297336669,0.013642095048790092
1.6566626650660266,-0.0030927192628657525,0.013564781735503968
1.6606642657062827,-0.01252884134762316,0.014689267402371605
1.6646658663465388,-0.017217380275643575,0.01588896382952802
1.6686674669867947,-0.00024254995444856925,0.017998719973793636
1.6726690676270508,0.003188574616736813,0.019876391115300946
1.676670668267307,0.013494729885025402,0.020595748113730356
1.680672268907563,0.023414053946958797,0.02290434724730712
1.6846738695478192,-0.014965140812265394,0.02186781781122945
1.6886754701880753,-0.008604685634711643,0.022736900725852726
1.6926770708283314,0.020258196620770847,0.023128621890437618
1.6966786714685875,-0.01566333525751184,0.02261227138368944
1.7006802721088436,-0.01192848894184471,0.018931637237369323
1.7046818727490998,-0.013041382574027557,0.021029216206872772
1.708683473389356,0.0003026775453945951,0.021844549636181636
1.712685074029612,-0.026955776334500265,0.022803389805035778
1.716686674669868,0.002376072159181143,0.020587534334435137
1.720688275310124,-0.006902684334763739,0.021799519519160645
1.7246898759503801,-0.00801752098109781,0.023195916648203675
1.7286914765906363,0.031078140396390907,0.0225277699908668
1.7326930772308924,0.011479492698795033,0.024077723096446842
1.7366946778711485,0.012134516976796864,0.0221729465488946
1.7406962785114046,0.016323368939220848,0.023690141044546968
1.7446978791516607,0.009877845948181752,0.024022533373407786
1.7486994797919169,0.011535359554015497,0.02460117350946126
1.752701080432173,-0.017174780370484664,0.023747851139909498
1.756702681072429,0.007920375636670338,0.02494187833956392
1.7607042817126852,-0.0060331295693949434,0.02439883140456802
1.7647058823529413,-0.012389669210923925,0.024948761870573488
1.7687074829931972,-0.01382623062865834,0.02433573495487736
1.7727090836334534,-0.016571476425592615,0.023434384005324615
1.7767106842737095,0.021528297659240497,0.023373136368682105
1.7807122849139656,-0.006268919180877781,0.024017099537485764
1.7847138855542217,-0.006062929449734339,0.025203899657728773
1.7887154861944778,0.009637643245913962,0.02194425358103968
1.792717086834734,0.0033148888417432916,0.023504323045945855
1.79671868747499,0.0015669796101113811,0.02458297770981506
1.8007202881152462,-0.025121612099182025,0.02591564214839477
1.8047218887555023,-0.008271040668663306,0.024427823338440617
1.8087234893957584,-0.01774881319289848,0.02361604145846806
1.8127250900360146,0.0005051297464004842,0.022670117805306193
1.8167266906762707,0.012024751035892595,0.021628514428320755
1.8207282913165266,0.010131656984430745,0.02060603779696263
1.8247298919567827,0.012309498035466776,0.01905301293639453
1.8287314925970388,0.006798790029052115,0.02029109046823716
1.832733093237295,-0.02359921222904396,0.020345722365845555
1.836734693877551,0.024217396741790215,0.022170968597253295
1.8407362945178072,0.01056905991503413,0.020319415451338706
1.8447378951580633,0.02055320856816025,0.02003875373808989
1.8487394957983194,-0.00925528956027107,0.019035461352970674
1.8527410964385755,-0.004283111526505251,0.01759921744163465
1.8567426970788317,-0.02153708117510771,0.01768176872927977
1.8607442977190878,-0.0008696098844446583,0.02041383585267171
1.864745898359344,-0.0006845617724540602,0.022685290167963626
1.8687474989996,-0.002036696331807432,0.023815454556062012
1.872749099639856,0.0036329470770791847,0.026773416205419003
1.876750700280112,-0.02463690347699513,0.024301520723165743
1.8807523009203682,-0.020195908205569765,0.0236802208595161
1.8847539015606243,0.023158840042315578,0.024270414490574755
1.8887555022008804,-0.028298068027049258,0.024327198714164874
1.8927571028411365,-0.005923881620896711,0.022560452668290355
1.8967587034813926,-0.02667931578176209,0.021299297374291717
1.9007603041216488,0.007919927274153287,0.019947533154008153
1.9047619047619049,-0.01719952479428503,0.02272662401994476
1.908763505402161,0.026158534971020726,0.022196405891595928
1.9127651060424171,-0.010351203245347423,0.022031487933025305
1.9167667066826732,0.004600277756416503,0.02479358072103248
1.9207683073229291,-0.00298729881980032,0.022514403104375455
1.9247699079631853,0.011705800733922633,0.02522898120487349
1.9287715086034414,0.0009953432509568546,0.02579557931822659
1.9327731092436975,-0.002425114197810652,0.025119809240095412
1.9367747098839536,-0.015531792674406278,0.02905970013284915
1.9407763105242097,-0.012409684619892902,0.030565715614811438
1.9447779111644659,0.009190230709497663,0.03096510906760044
1.948779511804722,0.009041533925215305,0.03086452022564425
1.952781112444978,-0.010162410652836046,0.028849917637504274
1.9567827130852342,0.010732931154172256,0.02585856348775586
1.9607843137254903,0.005680521409207924,0.022628350366875535
1.9647859143657465,0.006071618920494447,0.020639427080335226
1.9687875150060026,-0.0067357754767105585,0.021649883478954725
1.9727891156462585,0.009970278904037372,0.018925169527574236
1.9767907162865146,0.0061739880969376975,0.0190999103603555
1.9807923169267707,0.005943213104747903,0.018003562381062353
1.9847939175670268,-0.022029863092603446,0.015600328721064309
1.988795518207283,-0.008921009281235842,0.014872659325621143
1.992797118847539,0.01591033616324095,0.01510188708570342
1.9967987194877952,0.008044147480487093,0.015685881422817422
2.000800320128051,0.012329459642475143,0.015415495606562624
2.0048019207683074,0.006585309446486391,0.016222303155544474
2.0088035214085633,-0.011450919758342937,0.016770405765512923
2.0128051220488197,-0.0018876071964969595,0.017782773368069407
2.0168067226890756,-0.016468346036738156,0.017239254806189302
2.020808323329332,-0.004841954586553534,0.018286214381770558
2.024809923969588,0.007039240274754577,0.018130826449832455
2.028811524609844,0.019354368700198975,0.018468442087871666
2.0328131252501,0.014650899373073087,0.017822262903238253
2.0368147258903564,0.011525381392028546,0.01872126275497123
2.0408163265306123,-0.00695520910876636,0.018069414183704637
2.0448179271708686,0.007897257210589443,0.019585701095119878
2.0488195278111245,-0.023166625188868934,0.018786733238464418
2.0528211284513804,0.01435099633647085,0.018921535297612663
2.0568227290916368,-0.020674582639025708,0.02101092777320937
2.0608243297318927,-0.019198076117368602,0.019861321300929137
2.064825930372149,-0.005520610297374666,0.020267069743202817
2.068827531012405,0.00011937502675024705,0.018871904729087386
2.0728291316526612,0.025026447778321442,0.018849019943173288
2.076830732292917,0.00678220488465957,0.020537397353178992
2.0808323329331735,0.01293024299386967,0.021747253404754228
2.0848339335734294,-0.018106086631922633,0.023184254987740564
2.0888355342136857,-0.0002903924660285345,0.02588114141597557
2.0928371348539416,-0.005816970373238164,0.024175537710474905
2.096838735494198,0.004337420550455683,0.02343978290340916
2.100840336134454,-0.015259966587464304,0.026242101894301855
2.1048419367747098,0.019632347628510537,0.024283420236244944
2.108843537414966,-0.008314413338135486,0.024015350384530263
2.112845138055222,-0.002048269037810037,0.025040592088311425
2.1168467386954783,-0.009842455496702469,0.024002246239181804
2.1208483393357342,-0.007669193648468677,0.023678147720295112
2.1248499399759906,-0.0019584521842955778,0.02074464969225675
2.1288515406162465,-0.0011974987863522925,0.02088626281347139
2.132853141256503,0.004293378191721554,0.020723887694245085
2.1368547418967587,0.015744424099990415,0.019028266242684642
2.140856342537015,0.012709496858193522,0.018487292450471003
2.144857943177271,-0.004423676653742738,0.020002100852248864
2.1488595438175273,-0.019065474009973767,0.01729792551718412
2.152861144457783,-0.010986631679662089,0.01654640842944722
2.156862745098039,-0.02226997625664876,0.014718504242458089
2.1608643457382954,-0.008830874635961631,0.012566551796812285
2.1648659463785513,-0.01497325338873297,0.014974214371735045
2.1688675470188077,0.008797420117160146,0.01604803630102513
2.1728691476590636,0.011551060381178264,0.016061474580217377
2.17687074829932,0.003472295729130924,0.016654354031792423
2.180872348939576,-0.000949902521861586,0.015307393755244916
2.184873949579832,-0.012164228914738309,0.017481602230206495
2.188875550220088,-0.009583190204361372,0.01853829902272786
2.1928771508603444,0.003791835931765114,0.01933765225020456
2.1968787515006003,0.004876613491854555,0.019513424418208677
2.2008803521408566,-0.0003804693304489069,0.02100790587771186
2.2048819527811125,-0.014240688424850908,0.02136230812007823
2.2088835534213684,-0.010611716162927111,0.02084141095672598
2.212885154061625,0.013072764293258574,0.02028363405018031
2.2168867547018807,-0.026979208684076657,0.019796570757801505
2.220888355342137,-0.004556179470607917,0.01969813306234121
2.224889955982393,0.00853770118951171,0.0174875779619362
2.2288915566226493,0.009062866416845908,0.015835189720693234
2.232893157262905,-0.006001117478414639,0.014584265931109506
2.2368947579031615,0.013879671819063601,0.01486171233460466
2.2408963585434174,0.007628941327914474,0.014565625424884168
2.2448979591836737,-0.02107994782024305,0.017398259194153918
2.2488995598239296,0.026508897622759507,0.016308490945756444
2.252901160464186,0.01885729619752524,0.017097656352081006
2.256902761104442,-0.0004992383298696665,0.01836161646322293
2.2609043617446978,-0.01223067956381508,0.017401433832451983
2.264905962384954,0.019466488949438865,0.018070804662833177
2.26890756302521,0.0055952272454831906,0.01866860692422111
2.2729091636654664,0.0070706499351832095,0.02119300719564859
2.2769107643057223,0.007203836526666678,0.02526368858358501
2.2809123649459786,0.0055223313231561105,0.025982933504304508
2.2849139655862345,0.0077237161385679464,0.02440745889709053
2.288915566226491,0.02268504793606586,0.02427626621313487
2.2929171668667467,0.005654247768806622,0.02310582120762443
2.296918767507003,-0.004484556900305673,0.023267699771120205
2.300920368147259,0.009949537821162922,0.023039140358003828
2.3049219687875153,0.004731068315904534,0.022749512589777247
2.308923569427771,-0.0059480409322471405,0.02267492004753903
2.312925170068027,0.015918103739216673,0.021715852248542108
2.3169267707082835,-0.027588211131111543,0.024061520049870413
2.3209283713485394,0.018868258374726055,0.02165827139699405
2.3249299719887957,0.002054013229225259,0.018226986787852537
2.3289315726290516,-0.03737780647196857,0.01683920158220494
2.332933173269308,0.003288797168688244,0.017498500004916914
2.336934773909564,-0.01207339010606281,0.016519695621486766
2.34093637454982,0.022281593209477406,0.01596687455353408
2.344937975190076,0.004233070939664905,0.019393273920799498
2.3489395758303324,0.005935486691855264,0.021231283638021632
2.3529411764705883,0.0021639836964200566,0.02042896634539575
2.356942777110844,-0.00600509754350005,0.02539189363445523
2.3609443777511006,0.016222103178910936,0.024700954940947654
2.3649459783913565,-0.01926871943120468,0.023047710530664633
2.368947579031613,-0.003161574178233447,0.02563816966042588
2.3729491796718687,-0.003619014745575752,0.025598989377254817
2.376950780312125,-0.01923523372547415,0.024973619835715777
2.380952380952381,0.004713659921895967,0.024573680602292054
2.3849539815926373,-0.016931706878654834,0.024582569743379593
2.388955582232893,-0.0031345110089374133,0.024629931369852576
2.3929571828731495,0.012248917572557246,0.02333379523640329
2.3969587835134054,-0.010616181099705852,0.020886770627438433
2.4009603841536618,-0.020398496478370567,0.02113059021250606
2.4049619847939177,0.0036876998687327685,0.018304066076334745
2.4089635854341735,-0.01539588189098521,0.01852605272723305
2.41296518607443,-0.016677535045187302,0.019282954728441815
2.416966786714686,-0.005636142250012337,0.01629993293030463
2.420968387354942,-0.01511695880211205,0.017548762646811936
2.424969987995198,0.0006840316368062557,0.018277991951976942
2.4289715886354544,0.0022046940853879347,0.0211188398961841
2.4329731892757103,-0.010458829316962579,0.020757800668045816
2.4369747899159666,-0.038806417506778955,0.02062907943072341
2.4409763905562225,0.011055575097964463,0.02022538557149589
2.444977991196479,0.03008761382538975,0.020610911179093822
2.4489795918367347,-0.00825642097183705,0.02240223465048114
2.452981192476991,-0.0019267695933728045,0.019512048060558645
2.456982793117247,-0.01576038045800093,0.01912116344938411
2.460984393757503,-0.014562474930298332,0.01811272077070503
2.4649859943977592,-0.01272991439775887,0.023670229405685025
2.468987595038015,-0.005513769905665202,0.02348431248230895
2.4729891956782715,0.0033539119714067157,0.026517866506537174
2.4769907963185274,0.012517182719780577,0.024626190504352594
2.4809923969587837,0.008873394148265202,0.0243518461765129
2.4849939975990396,0.006972285923101616,0.02440863327124669
2.488995598239296,0.0037828226860543656,0.024079117245723678
2.492997198879552,-0.016167682268249658,0.02518429226540107
2.496998799519808,-0.01820677189281924,0.023688162384634063
2.501000400160064,0.002515849590588697,0.024104116687912
2.5050020008003204,0.0010299471405713341,0.025710752000135582
2.5090036014405763,0.009367182013283343,0.025463748951930973
2.5130052020808322,0.005177137202811153,0.020504146885972394
2.5170068027210886,0.0046002529731660104,0.019371087616159955
2.5210084033613445,-0.01161932264719471,0.01720243033310116
2.525010004001601,-0.0032158195231573785,0.01875264636004061
2.5290116046418567,-0.0028288139288011552,0.018844422143637133
2.533013205282113,0.015007865440057435,0.01654949264881
2.537014805922369,-0.024425026208149164,0.015740091411752255
2.5410164065626253,0.00662974343132066,0.014563405649763569
2.545018007202881,0.019213708457582135,0.014421084177798736
2.5490196078431375,0.008529536374427573,0.01570879475208854
2.5530212084833934,0.006000661793885327,0.014259687839749935
2.5570228091236498,-0.017809383433580746,0.013317971793075128
2.5610244097639057,-0.006829926406574594,0.014569875796446873
2.5650260104041616,-0.017088321964089645,0.01778583018694175
2.569027611044418,-0.006436460053067978,0.016299865946444784
2.573029211684674,-0.020660348823353034,0.01645674174039444
2.57703081232493,-0.001570239833358441,0.01739364474083463
2.581032412965186,-0.002331214747836327,0.01816805778235473
2.5850340136054424,0.013552911185843742,0.01948331149032187
2.5890356142456983,-0.000307487545443195,0.01974080796790074
2.5930372148859546,0.0036570245331711336,0.021686388063416058
2.5970388155262105,0.004150395574222895,0.02087892340989335
2.601040416166467,-0.022686521433460755,0.023596695789815488
2.6050420168067228,0.008485958967796659,0.023400616098823695
2.609043617446979,0.014621249459050155,0.021425655896208595
2.613045218087235,0.028072810102621654,0.019731833528721338
2.617046818727491,0.0034714314158926767,0.01874685697075567
2.6210484193677472,0.012591896224251954,0.016323201670840594
2.625050020008003,-0.01124808316028477,0.01564095294347293
2.6290516206482595,0.01877586840012415,0.018240528299351813
2.6330532212885154,-0.020079865564070296,0.016787984349133898
2.6370548219287717,0.005983480110874823,0.0180018343894919
2.6410564225690276,0.0002667724829830881,0.019713163939103176
2.645058023209284,0.0016750978924375995,0.019251226973242892
2.64905962384954,-0.003345964226050419,0.017994201504387047
2.653061224489796,0.0010074199834801379,0.01950196218044262
2.657062825130052,0.000860599031352359,0.022063958822740808
2.6610644257703084,-0.003531434814912927,0.023080826405058263
2.6650660264105643,-0.01859184710715124,0.023965118297233336
2.6690676270508202,0.015018761333156489,0.023436933602512332
2.6730692276910766,0.017864355608137168,0.02305129432524241
2.6770708283313325,-0.014944043974726153,0.02003813006692021
2.681072428971589,0.006467773304446107,0.018873010255202594
2.6850740296118447,0.004144469731375912,0.016729168193396926
2.689075630252101,-0.009677846566529254,0.012905741904589554
2.693077230892357,-0.02187146440697523,0.015261428746663473
2.6970788315326133,-0.024005293938472467,0.015639522465861935
2.701080432172869,-0.0029504783842096965,0.016670305366757482
2.7050820328131255,0.010421981987793424,0.016073325854794332
2.7090836334533814,0.004231992790928205,0.013952628429284337
2.7130852340936378,0.011989847199486836,0.013666119602947805
2.7170868347338937,0.0017325111703273717,0.015132318935100378
2.7210884353741496,-0.01793704756729044,0.018278814099482895
2.725090036014406,-0.0029525865305691304,0.02149743666670205
2.729091636654662,0.017147751501853343,0.021800155666063026
2.733093237294918,0.015238345564605037,0.023289772385763362
2.737094837935174,-0.012378652406167954,0.023398915893449012
2.7410964385754304,-0.012792085404686208,0.022370356584537326
2.7450980392156863,-0.007804043140144057,0.02030042376468945
2.7490996398559426,0.020510101068145777,0.02031174881653977
2.7531012404961985,0.003153270015349932,0.01844353837211258
2.757102841136455,-0.012336997273934619,0.020107426761623807
2.7611044417767108,-0.010775209817711727,0.021835798379280336
2.765106042416967,0.0250014262047284,0.022256570725050658
2.769107643057223,0.01340160282244427,0.020842047864924565
2.773109243697479,-0.010689549330963012,0.01831797219729422
2.7771108443377353,-0.006863039036191187,0.021053675563719846
2.781112444977991,-0.010845489562963764,0.019921245774622887
2.7851140456182475,0.029904644835764455,0.02118396584829165
2.7891156462585034,0.04373871898119568,0.02099473128248584
2.7931172468987597,-0.01899080927619316,0.02461991448479448
2.7971188475390156,-0.005993444075854861,0.023913314367010406
2.801120448179272,-0.007067636814117069,0.02511869534585744
2.805122048819528,0.01445882215545398,0.023516387424926375
2.809123649459784,-0.0061245116385651,0.02283200193622752
2.81312525010004,-0.00422729292693765,0.025562465873442936
2.817126850740296,0.0014327042811342597,0.030383800088798648
2.8211284513805523,-0.012569185176007719,0.03212664356150052
2.8251300520208082,0.022777570404831093,0.02986501937299293
2.8291316526610646,0.019116943395376475,0.030474858583183266
2.8331332533013205,-0.0035827099765404365,0.030805428526274842
2.837134853941577,0.003529574549992566,0.030080872486892507
2.8411364545818327,0.002272857315143405,0.026844364085455274
2.845138055222089,0.008615776762714134,0.0249796682078028
2.849139655862345,0.0017935443833962525,0.025272506283056387
2.8531412565026013,0.014656810983388096,0.027751912465291927
2.857142857142857,-0.009487531192185851,0.029040564533839297
2.8611444577831135,-0.012803544074594176,0.024939735768817445
2.8651460584233694,0.013162493272735337,0.018675347646049445
2.8691476590636253,-0.01586793525387424,0.016070772463381917
2.8731492597038817,-0.012964023788389442,0.0164793190755988
2.8771508603441376,-0.01214542705344855,0.015657641259550836
2.881152460984394,0.015839812336881483,0.01568848695098984
2.88515406162465,0.007332807102431588,0.01621242895588338
2.889155662264906,0.0013003470920140033,0.017548566956013603
2.893157262905162,-0.014534055211572071,0.019376010734810812
2.8971588635454184,-0.012136865703878725,0.019889939869590683
2.9011604641856743,-0.009325705375823338,0.01836103728447224
2.9051620648259306,-0.012624793523841455,0.017274909121641552
2.9091636654661865,0.0016395140389412223,0.019184505745291344
2.913165266106443,-0.010023055340907392,0.019777030783231096
2.917166866746699,-0.014109027388075535,0.019625518445000028
2.9211684673869547,0.009152285512066925,0.02054755729329467
2.925170068027211,0.005002834898798865,0.022158996187272267
2.929171668667467,0.014073386750404567,0.02132843599700534
2.9331732693077233,-0.006472108584024453,0.021817206130427518
2.937174869947979,-0.011728920456666334,0.020077904831012204
2.9411764705882355,0.0018091657030090305,0.01958879574971953
2.9451780712284914,-0.012921799940779145,0.01931476650340206
2.9491796718687477,-0.0188948936402037,0.018720916315265134
2.9531812725090036,0.003256549373136413,0.017608135377189735
2.95718287314926,0.0009620727549081458,0.017332934906744205
2.961184473789516,-0.021968003391538368,0.017198842285469487
2.9651860744297722,0.011063275021769521,0.01882356303113764
2.969187675070028,-0.0013389658890926358,0.01684108745677257
2.973189275710284,-0.016653554903133947,0.016963376373394658
2.9771908763505404,-0.00988086972899969,0.01845420912191235
2.9811924769907963,-0.004662340979795489,0.016994682483903966
2.9851940776310526,-0.0010859906148734722,0.0168891404438133
2.9891956782713085,0.019583512743700078,0.01875010495211021
2.993197278911565,0.0071758658988048795,0.01827559162390386
2.9971988795518207,-0.0037009629275925535,0.01705831462540181
3.001200480192077,-0.0032396013812513594,0.018873439842545563
3.005202080832333,-0.02012226307712488,0.01822026618752469
3.0092036814725893,0.0009920560112453118,0.017938313242609395
3.013205282112845,0.022001053526729993,0.01628019680577614
3.0172068827531016,-0.003304090096265778,0.019049353177212264
3.0212084833933575,0.004574182311065803,0.018154164744930694
3.0252100840336134,0.008479363001387349,0.01578702462193969
3.0292116846738697,-0.006535761189630338,0.01578438420766151
3.0332132853141256,-0.011361102151095799,0.018769448187071266
3.037214885954382,-0.02487386062242451,0.015501498135118807
3.041216486594638,0.006424065944009436,0.017205550552179684
3.045218087234894,-0.01906533758692769,0.01751170729630643
3.04921968787515,-0.020184517676318358,0.015629800101645514
3.0532212885154064,-0.028094499479690845,0.01541145220534904
3.0572228891556623,0.007635208916111652,0.01570332191502473
3.0612244897959187,0.005590465170756522,0.017304134058087322
3.0652260904361746,-0.01780888291067275,0.01812834439346253
3.069227691076431,0.012837555804237054,0.018011217636001275
3.073229291716687,-0.0267981076772831,0.020404912092603686
3.0772308923569427,-0.02298136305144944,0.02304484720889881
3.081232492997199,0.027741358911979475,0.024286882664728542
3.085234093637455,0.004441320592162278,0.025321853409410244
3.0892356942777113,-0.005640109167372908,0.02276516397373505
3.093237294917967,-0.0019741496463701338,0.025024939781331433
3.0972388955582235,0.02873202569502164,0.026312332972529186
3.1012404961984794,0.00372393735299419,0.029166303834009345
3.1052420968387358,-0.016115247140527773,0.03172844820271677
3.1092436974789917,0.017696314538264885,0.034280412124165965
3.113245298119248,0.0019257512214869233,0.031097122280668882
3.117246898759504,0.007284463033827548,0.030974985647577172
3.1212484993997602,0.011618691069333427,0.02831226212402616
3.125250100040016,-0.0052379479401633245,0.029643922085188554
3.129251700680272,0.0066321406032033734,0.025847107651773615
3.1332533013205284,0.02209349066593946,0.02716825614884103
3.1372549019607843,-0.00381129985435657,0.029054288295672484
3.1412565026010406,-0.004565121531751479,0.026579774029985116
3.1452581032412965,-0.008634450462705029,0.02571462932502624
3.149259703881553,-0.0017239158030997286,0.023349750428583088
3.1532613045218087,-0.004002198704133551,0.020585413100524277
3.157262905162065,-0.0004915167913235463,0.017296700089466138
3.161264505802321,0.006711232605953513,0.02004682188677147
3.1652661064425773,-0.014602462711149872,0.01976190233672065
3.1692677070828332,-0.019403643310407483,0.020165563089387977
3.1732693077230896,-0.008441720110749442,0.017034459123792024
3.1772709083633455,0.008504684894538804,0.01672286554427989
3.1812725090036014,0.020566630206721753,0.014835711817711754
3.1852741096438577,0.020742112460883082,0.012155288441756328
3.1892757102841136,0.033870903379220725,0.012900843045582122
3.19327731092437,0.02148674134186622,0.014040951618135164
3.197278911564626,0.005726389010924702,0.015253809117223243
3.201280512204882,0.006740331612349853,0.015752941158388982
3.205282112845138,0.002234513708120781,0.016044674404244758
3.2092837134853944,0.01698708561768316,0.01580679700940954
3.2132853141256503,0.02725163367902363,0.01844453483998198
3.2172869147659067,0.013895561386368736,0.023010232377959242
3.2212885154061626,0.0031166835564234515,0.025012556463007367
3.225290116046419,0.0014636187230376934,0.025636122220983024
3.229291716686675,-0.0061673464552254535,0.026062709941548384
3.2332933173269307,0.009950092744258674,0.02633426033979891
3.237294917967187,-0.0070209228364802815,0.02793518800112052
3.241296518607443,-0.0005148359924483051,0.029905866997028695
3.2452981192476993,0.021531429486054434,0.029047734761879596
3.249299719887955,0.0021415229781204586,0.028218120100436103
3.2533013205282115,-0.006750143690967105,0.027121156414182022
3.2573029211684674,0.0075371230523168745,0.024877818402760904
3.2613045218087238,-0.006385042810621585,0.023196474492318563
3.2653061224489797,0.0019728601340364667,0.0190133787913822
3.269307723089236,0.0012538418973147283,0.01574605846807889
3.273309323729492,-0.007478648588285728,0.018208406504398634
3.2773109243697482,0.0052499530297202765,0.017491934602430155
3.281312525010004,0.0008160024927305698,0.018195447677167596
3.28531412565026,0.012966636680395422,0.016723189709670436
3.2893157262905164,0.005248909977261245,0.01347227686763448
3.2933173269307723,0.009776273726269023,0.01161477830174951
3.2973189275710286,0.0024518376528495397,0.011324556678559182
3.3013205282112845,0.004932711243525616,0.01226166892451669
3.305322128851541,0.0030626522623793807,0.01211874351389342
3.3093237294917968,-0.01655324803074016,0.010695696908615241
3.313325330132053,-0.01939689541946675,0.011622010057330124
3.317326930772309,-0.003345170493157976,0.01235955563961696
3.3213285314125653,-0.010658511574826649,0.010528159842352933
3.3253301320528212,-0.0021603836988253835,0.01057650535156961
3.3293317326930776,-0.012548885906005216,0.010293358261554671
3.3333333333333335,-0.008309047959013794,0.009596257587848094
3.3373349339735894,0.011405336609365456,0.011180414249519006
3.3413365346138457,-0.017573565917552412,0.013894993762134466
3.3453381352541016,0.00660375923562902,0.014220812533011842
3.349339735894358,0.016734802901346088,0.014716219640193618
3.353341336534614,-0.01824251613276999,0.014234879843122309
3.35734293717487,-0.0016090183861581613,0.016062805717687857
3.361344537815126,-0.009277296234538436,0.01533717616551267
3.3653461384553824,0.023574292160131922,0.016296317336467754
3.3693477390956383,0.014354129378121335,0.01751109733946932
3.3733493397358947,0.02049496024860643,0.01815794642362054
3.3773509403761506,-0.008534720838023013,0.019996654604332198
3.3813525410164065,-0.0026233680358405437,0.02236160318207702
3.385354141656663,0.0028372313227361043,0.020033365264714404
3.3893557422969187,-0.006895369431533183,0.018456781185694725
3.393357342937175,-0.023722778880209083,0.021608379442689236
3.397358943577431,-0.01810558878039497,0.022184138628833068
3.4013605442176873,0.030350689390772498,0.02504057601886366
3.405362144857943,2.883763918768401e-05,0.024415188726236173
3.4093637454981995,-0.024458310056169337,0.023529387591085752
3.4133653461384554,0.016696119460205893,0.022194518676279033
3.417366946778712,0.026746491752977664,0.020530907868691394
3.4213685474189677,-0.02833991282413991,0.023197967435661906
3.425370148059224,-0.016987800823702374,0.023411529173944207
3.42937174869948,0.002368294144933765,0.025297923371553312
3.433373349339736,-0.005765949538555686,0.025051738936565267
3.437374949979992,0.004737562017905681,0.0274168666710913
3.441376550620248,0.0152928053440416,0.02634528099133416
3.4453781512605044,0.001874458392381766,0.028275950463968955
3.4493797519007603,0.027766182470116998,0.02949815572182849
3.4533813525410166,-0.009875140183287013,0.030815104257097617
3.4573829531812725,0.006865471914915684,0.03077536499193224
3.461384553821529,-0.0015050615074771235,0.031231644971664342
3.4653861544617848,0.020557999009242958,0.030895469125986327
3.469387755102041,0.014004378580530451,0.029582120462585394
3.473389355742297,0.007809885561450872,0.027053389700961317
3.4773909563825534,0.007034048899071426,0.026650736158191534
3.4813925570228093,-0.009747019584387135,0.02818474195669766
3.485394157663065,0.006574974754452469,0.025443863784409933
3.4893957583033215,-0.01724876085105966,0.02307717122336389
3.4933973589435774,0.0044108500089231235,0.022113034308985688
3.4973989595838337,-0.020243618844893053,0.019879628159226587
3.5014005602240896,1.4526783980989749e-05,0.018449753831535024
3.505402160864346,-0.0037513414715761146,0.01917665561169045
3.509403761504602,0.00413439288112093,0.019796886861666037
3.513405362144858,-0.001859902076574755,0.02008314678304139
3.517406962785114,-0.020334673541541382,0.02038787508850909
3.5214085634253705,-0.008496472743618859,0.020783032502130153
3.5254101640656264,-0.01474059769727391,0.01961105386659246
3.5294117647058827,0.0075689056732796125,0.018074818506809868
3.5334133653461386,0.018617465013096624,0.01758965220849719
3.5374149659863945,-0.00694017206600835,0.01799928918189903
3.541416566626651,-0.0027188725579420075,0.015086217093439604
3.5454181672669067,0.018244437854072856,0.01607244610000861
3.549419767907163,-0.002719192761669423,0.01617941302631506
3.553421368547419,-0.0052795453970323385,0.01738005565231254
3.5574229691876753,-0.030747389300566887,0.017040716153604148
3.561424569827931,-0.016568122839860047,0.018916877261032677
3.5654261704681876,-0.004476804540104128,0.017310849526270388
3.5694277711084434,-0.02740217924643978,0.017047247711363525
3.5734293717487,0.015093469962994766,0.016735785086845735
3.5774309723889557,0.019317605212723892,0.017157158823252267
3.581432573029212,0.010723354962264006,0.017395245523559335
3.585434173669468,-0.005610199009684517,0.02154142025668474
3.589435774309724,-0.008285425455850431,0.023832889144171768
3.59343737494998,0.008177611761202939,0.021362310681728166
3.597438975590236,0.017389555538566397,0.02430772732622913
3.6014405762304924,-0.019330724831572048,0.02436270310006133
3.6054421768707483,0.011181510063991464,0.026193093049760204
3.6094437775110046,-0.008462532529242315,0.024963229297576415
3.6134453781512605,-0.0089481040948695,0.024756025997543722
3.617446978791517,-0.0007374505554644264,0.025623267724561336
3.621448579431773,0.003523979585726565,0.024054905435280508
3.625450180072029,0.005914862165873314,0.0263404762335732
3.629451780712285,0.002464471907214408,0.028529581294269434
3.6334533813525414,-0.02964945969924008,0.025481312965386502
3.6374549819927973,-0.00872401504898087,0.024218501622639967
3.641456582633053,-0.009191157677956344,0.02491510823341066
3.6454581832733095,0.00307775494190082,0.02076087386529633
3.6494597839135654,0.019577084086765933,0.018958403826923795
3.6534613845538217,-0.006040252906177707,0.016870321985270696
3.6574629851940776,0.0020030973451658765,0.015583628382378867
3.661464585834334,-0.004030472299260087,0.019328827671596112
3.66546618647459,0.006726853940415761,0.019397157785972875
3.6694677871148462,-0.012634146234146758,0.01955506328465001
3.673469387755102,0.004996504166955281,0.017325354721052674
3.6774709883953585,0.0036315997815070653,0.01736373628857921
3.6814725890356144,0.01834536405184238,0.016562753558628077
3.6854741896758707,0.012386477215133597,0.015556405136662725
3.6894757903161266,-0.0030006706180079057,0.014790262144854727
3.6934773909563825,0.023880863040346208,0.01572338191046803
3.697478991596639,0.03188157978369895,0.01714270133534277
3.7014805922368947,0.0028739911190405337,0.01699962564889751
3.705482192877151,0.01479200842801085,0.017181458465708118
3.709483793517407,0.002033095784363762,0.015420335628753671
3.7134853941576633,0.012292667620905492,0.01599092932872631
3.717486994797919,0.018713165305611654,0.015026481709632075
3.7214885954381756,0.010502971475568838,0.01826750424647148
3.7254901960784315,-5.2356655216916406e-05,0.02018448452025968
3.729491796718688,-0.02019688803363534,0.019691196413449723
3.7334933973589437,0.006580540924183562,0.021683646236091054
3.7374949979992,0.0012187530768377473,0.021372464740100242
3.741496598639456,-0.001935574792468527,0.022239591300658005
3.745498199279712,0.021109183892393097,0.023186672752105477
3.749499799919968,0.004307435564483853,0.024044553438065074
3.753501400560224,0.01705919107304662,0.023486924857651127
3.7575030012004804,-0.008846756046958624,0.023775383242046973
3.7615046018407363,-0.0036434270026074445,0.022870846752721656
3.7655062024809927,-0.02114313494034805,0.022593232711473968
3.7695078031212486,0.0075336999738672104,0.019174264091389562
3.773509403761505,0.002111124725244332,0.01749597747699238
3.777511004401761,-0.012295001705596342,0.017719301113585714
3.781512605042017,-0.007385673755008586,0.018072517085589494
3.785514205682273,-0.01123115746341691,0.0191340520430071
3.7895158063225294,0.01104152390836975,0.017786542640191198
3.7935174069627853,-0.015108965058936429,0.018165120029336464
3.797519007603041,-0.017020260813102633,0.017702522045926032
3.8015206082432975,-0.0009883063804528344,0.018023268046067367
3.8055222088835534,-0.003938175994090303,0.01679219278791249
3.8095238095238098,-0.000285496937863525,0.016917628546718556
3.8135254101640657,-0.020071847884363447,0.018477512200223097
3.817527010804322,-0.019759893600603436,0.019896174554150593
3.821528611444578,-0.0063060452256061975,0.01896136979453611
3.8255302120848342,0.00815552669922542,0.020941965816183163
3.82953181272509,0.00713594795385005,0.01843820055047576
3.8335334133653465,0.0019730352692008193,0.017673467775933503
3.8375350140056024,-0.00773857091420908,0.017150318688524832
3.8415366146458583,-0.0016497081848146399,0.016983417402647753
3.8455382152861146,-0.014643917384798416,0.01888819859671248
3.8495398159263705,0.01936835995102765,0.019541746702004422
3.853541416566627,0.003072382252313631,0.01889683673360724
3.8575430172068828,-0.014344953513760842,0.01885793067467821
3.861544617847139,-0.02160763666798939,0.017415560499112484
3.865546218487395,0.011722914621282228,0.016900976570521743
3.8695478191276513,-0.025441786810476427,0.014804090150871823
3.8735494197679072,0.0023310021630025385,0.014433867462514034
3.8775510204081636,0.0066256398493957985,0.017297389950050413
3.8815526210484195,0.004849102532038508,0.017162503517884904
3.885554221688676,-0.008872062987273523,0.019352898116738303
3.8895558223289317,0.017103071363269728,0.019592166500866384
3.8935574229691876,0.016042307331812066,0.018340044468099982
3.897559023609444,0.004644580226035153,0.02132129945375927
3.9015606242497,-0.0014255307505938856,0.02041386700669704
3.905562224889956,0.019659986459742387,0.02033436349888267
3.909563825530212,0.001492174115411876,0.020782440717546907
3.9135654261704684,0.01627851989257822,0.020959033240969174
3.9175670268107243,-0.014829321963661013,0.02336659167379201
3.9215686274509807,-0.007027256124377541,0.02358445399090892
3.9255702280912366,0.021287715771670906,0.02129056109325456
3.929571828731493,0.0012067890356472748,0.021033989680625097
3.933573429371749,-0.0036951123727813973,0.021862045828795456
3.937575030012005,-0.014611912138399614,0.018728155106152677
3.941576630652261,0.010240482566454797,0.01943789613539427
3.945578231292517,-0.005636622662539248,0.01778452599583733
3.9495798319327733,0.0034866345521045385,0.018516179403371906
3.953581432573029,-0.011629738558400072,0.020800459150228347
3.9575830332132855,0.033755382861800055,0.020233004514499157
3.9615846338535414,-0.006768316365504954,0.019426460918500272
3.9655862344937978,-0.0027561265735105496,0.019038350490363683
3.9695878351340537,0.021607150646243575,0.01813445455662477
3.97358943577431,0.012120067433116557,0.018289009918208025
3.977591036414566,0.010115690668193596,0.018610119813895223
3.9815926370548222,-0.0028976014329096995,0.017359046450170185
3.985594237695078,-0.003486560766488711,0.02238549664035174
3.9895958383353345,0.0013457959569944094,0.020903853425534365
3.9935974389755904,0.0168220519037775,0.019022908608732327
3.9975990396158463,0.006712897451493873,0.021294384895183986
4.001600640256102,-0.001322340979581352,0.019866110104010192
4.0056022408963585,0.007985388129385767,0.021254073423381963
4.009603841536615,0.007917539895560214,0.02112982511792354
4.013605442176871,0.018806959480698084,0.019396549765222038
4.017607042817127,-0.00953112042527442,0.018010801076950834
4.021608643457383,0.014745941431452995,0.019753436267977154
4.025610244097639,0.009285289504664576,0.02025607225473488
4.029611844737896,0.020616035209744973,0.018650230104079908
4.033613445378151,-0.003951702365495826,0.01463539091241946
4.0376150460184075,0.006085604387970945,0.014814434319930935
4.041616646658664,-0.018081105188920407,0.01731507561550378
4.04561824729892,0.005666675004442526,0.015433689145919471
4.049619847939176,0.013243637906627916,0.01584278747715128
4.053621448579432,-0.0004051860930735677,0.015713415035644995
4.057623049219688,-0.00478979427921259,0.018473860393928312
4.061624649859944,0.014777439534978832,0.018546327181009813
4.0656262505002,-0.016342042181345235,0.01928476616197364
4.069627851140456,-0.0272055624787606,0.01948092050837801
4.073629451780713,-0.015853959889928708,0.01931792416603366
4.077631052420968,0.0037123288799471455,0.02117520394490476
4.081632653061225,0.011558977157988487,0.01999424552670956
4.085634253701481,-0.0040251995773455,0.01950695805100583
4.089635854341737,0.013110143075216102,0.018879178543495797
4.093637454981993,0.01252910337911158,0.019940286854985317
4.097639055622249,-0.001687151580059034,0.021881434899965205
4.101640656262505,-0.006223516088319744,0.02290480163223256
4.105642256902761,-0.0019813040267483905,0.020271286827053824
4.109643857543017,-0.012700953763036874,0.021456463048305185
4.1136454581832735,0.01654108970879311,0.021135462051980577
4.11764705882353,0.005993002676923249,0.020361010457341483
4.121648659463785,0.0033710005057391865,0.02143014324819646
4.125650260104042,-0.0044221736823047255,0.01962969917734701
4.129651860744298,-0.007478471740193884,0.020536166545209733
4.133653461384554,0.00256699712437425,0.02009861749438254
4.13765506202481,-0.018635366689204447,0.019775111162903484
4.141656662665066,0.0052664917067412565,0.019806121794550827
4.1456582633053225,0.00032387976320021153,0.016501308684102867
4.149659863945578,0.0011921416112396655,0.014556524640336225
4.153661464585834,0.019389274313106136,0.01466711499016338
4.157663065226091,0.019289341309072294,0.014031392195368312
4.161664665866347,0.01101462623741039,0.013804211382242243
4.165666266506602,-0.008934204078520734,0.014665014208881007
4.169667867146859,0.0038730453868930773,0.013533534816711516
4.173669467787115,-0.011450417978423786,0.013321143732582716
4.1776710684273715,-0.0018044189503954632,0.01253728018708137
4.181672669067627,-0.003006157244546048,0.015249356851381955
4.185674269707883,-0.007990780869499118,0.0162757954209017
4.18967587034814,-0.01074400602272347,0.01541479943054247
4.193677470988396,-0.017083838322243503,0.01587302422958937
4.197679071628651,0.01262698041826808,0.015951240367611853
4.201680672268908,0.015364855218663756,0.01704620646836663
4.205682272909164,0.011188512902835136,0.016162216783751786
4.2096838735494195,0.005392689161036385,0.016230635783452328
4.213685474189676,-0.009110829343229293,0.014572261353356266
4.217687074829932,-0.005004118106304435,0.015425631304612997
4.221688675470189,0.020503050600067053,0.01803675090988069
4.225690276110444,0.02952530109475918,0.0198182428919117
4.2296918767507,0.008047251819741181,0.01919125807209291
4.233693477390957,0.004673777863718258,0.017929188610768258
4.237695078031213,0.005655866234243505,0.01705331829951497
4.2416966786714685,0.033127202539456814,0.017080835652248355
4.245698279311725,-0.005669125656130212,0.017257051252199517
4.249699879951981,-0.008361761946862868,0.01866740715698213
4.253701480592237,-0.004453502197338142,0.022986185069676143
4.257703081232493,-0.010502556318001382,0.023771562958942952
4.261704681872749,0.007893190991221022,0.02325479010723128
4.265706282513006,-0.02567361441988351,0.022462082803735357
4.269707883153261,0.0030187928237328607,0.024961560513924102
4.2737094837935174,0.02170357676139734,0.023877560758434228
4.277711084433774,0.0029708994819808332,0.022786513064306676
4.28171268507403,-0.001049199081092934,0.021737231323372894
4.285714285714286,-0.026927195611191675,0.022533323644655243
4.289715886354542,-0.004532347742891041,0.022343621542358628
4.293717486994798,0.014309234031621357,0.025563828016334268
4.297719087635055,0.0032443755473668063,0.022839866134059403
4.30172068827531,-0.003800348287801248,0.021621279722769
4.305722288915566,0.02426244279361665,0.020830408846467193
4.309723889555823,0.00935472884080679,0.020265717192438987
4.313725490196078,-0.003599673161776114,0.023579686315368994
4.3177270908363345,0.00659200312013131,0.019124747736251304
4.321728691476591,0.013145029529508065,0.020470834380284766
4.325730292116847,0.008919086160533373,0.01967357059777711
4.329731892757103,-0.0039704263444818345,0.01957181241189372
4.333733493397359,-0.004491663646323269,0.02171553545369984
4.337735094037615,0.0031609491011472014,0.02194323590531194
4.341736694677872,-0.015020510244987764,0.018504223775209046
4.345738295318127,-0.0030027029403590483,0.019060912470219935
4.3497398959583835,-0.01007973405297804,0.017727532653613085
4.35374149659864,-0.012298606610310832,0.018654231057874962
4.357743097238895,0.006247077640974837,0.01910934398384109
4.361744697879152,0.0005712868739128165,0.015613997789415784
4.365746298519408,-0.010093552453025541,0.01540034058570136
4.369747899159664,-0.025203693929685626,0.015511153942365626
4.37374949979992,-0.010041326719471218,0.015473502531713802
4.377751100440176,0.002736702751349265,0.016451800134463238
4.3817527010804325,-0.0011315173221346476,0.014587892947438308
4.385754301720689,-0.004798099317007646,0.014103736083587561
4.389755902360944,-0.005768606879552886,0.013631928305501079
4.393757503001201,-0.004629925560060562,0.014177452572743304
4.397759103641457,0.01680896309112984,0.016056133532348527
4.401760704281713,-0.0034374669374087493,0.01623097312487771
4.405762304921969,-0.027996075654408,0.01603876502065352
4.409763905562225,-0.015872607128717877,0.015515270650858493
4.413765506202481,-0.004781559646182301,0.015770330650579967
4.417767106842737,-0.0018144089386698612,0.014328929338134944
4.421768707482993,-0.019115127277359627,0.014582442666910157
4.42577030812325,0.002405663801239843,0.015630823652337717
4.429771908763506,-0.011895286448404674,0.014250301412773734
4.433773509403761,-0.008573048230570845,0.01763868897398051
4.437775110044018,0.006868857490874268,0.02002255986262558
4.441776710684274,-0.019895140476822466,0.01919497735326996
4.44577831132453,0.009040532151797719,0.015551041100200797
4.449779911964786,0.0069230540459327755,0.016964694865961884
4.453781512605042,0.017531506022926437,0.01691312061596044
4.4577831132452985,0.0031447494477935462,0.018590063222540674
4.461784713885554,-0.0056532410822234475,0.019178181807820247
4.46578631452581,-0.001169417660234206,0.019349595474018065
4.469787915166067,0.01399796036123173,0.021727841327512414
4.473789515806323,0.00971928458967584,0.02051755776646427
4.4777911164465785,0.005302223011934552,0.02106059519718778
4.481792717086835,0.006505956331120184,0.019430266409130793
4.485794317727091,-0.02572558997624872,0.017447328408023016
4.4897959183673475,0.002793647007452866,0.017583132114170417
4.493797519007603,-0.011941051546804946,0.01748264562630608
4.497799119647859,0.003056655727852629,0.01668541603823415
4.501800720288116,0.0035056915343716485,0.01782484240130677
4.505802320928372,0.004587553172964439,0.016797675350917397
4.509803921568627,0.0006386422524181944,0.016475632538846523
4.513805522208884,-0.018228239686099563,0.019413419270859777
4.51780712284914,0.00505084492231066,0.016749090196302843
4.5218087234893956,-0.009540074648741558,0.017200976937614385
4.525810324129652,-0.007737824657173374,0.01659861098220063
4.529811924769908,-0.004693620413779516,0.014413457656081449
4.533813525410165,0.02808533030655686,0.014638239422699494
4.53781512605042,-0.010379016906973905,0.013856989441028636
4.541816726690676,0.016505455478171758,0.01651467051330522
4.545818327330933,-0.005567762315654987,0.015120753669724818
4.549819927971189,-0.0065865138490649395,0.015092833637071763
4.5538215286114445,0.0048988640809715465,0.015472288465918806
4.557823129251701,0.018128161539984564,0.015189935390377005
4.561824729891957,-0.016476320986876153,0.015557571397238356
4.565826330532213,0.017208241009617892,0.01673933494325618
4.569827931172469,0.0034556528323762908,0.01745044676072079
4.573829531812725,0.0020667855402797513,0.017841664890481
4.577831132452982,0.003509633694613098,0.018321641945191633
4.581832733093237,0.008962582399373975,0.018370142662682516
4.5858343337334935,0.0148574086299228,0.021094924262684205
4.58983593437375,-0.0037997690602752034,0.020821983894349638
4.593837535014006,0.014117198706692946,0.02271604676811755
4.597839135654262,-0.0006012796057436724,0.02176812359542823
4.601840736294518,-0.004347173114893379,0.020884603426318326
4.605842336934774,-0.01996084150213085,0.020700144083898062
4.609843937575031,0.009946684714192654,0.017720913449697305
4.613845538215286,-0.007926920540842841,0.0184186249855979
4.617847138855542,0.014235050400516933,0.016439141158876146
4.621848739495799,-0.0032134924510749717,0.01777110155102061
4.625850340136054,-0.019647465322456564,0.016838631317290638
4.629851940776311,0.02042867708043677,0.016752680561953087
4.633853541416567,-0.0023164520874140956,0.01703820314021504
4.637855142056823,0.009123832703006518,0.016020917731852775
4.641856742697079,0.01368065815282778,0.01457493337852546
4.645858343337335,0.01236131510333556,0.01625431081994281
4.649859943977591,0.019132696806998764,0.016432962150477137
4.653861544617848,-0.005633588193312635,0.01894715742139769
4.657863145258103,0.005536774025804813,0.020733518915795536
4.6618647458983595,0.003689109929076912,0.018779699198306705
4.665866346538616,0.013986069551677954,0.019609162284880247
4.669867947178871,0.00814883853967305,0.019541151400803404
4.673869547819128,0.00370960551663891,0.021373307437360992
4.677871148459384,-0.021077540810962327,0.023676819743229726
4.68187274909964,-0.003729083305924407,0.021444703722626208
4.685874349739896,0.003190534007225199,0.020757661197111376
4.689875950380152,0.010473678694259277,0.02009743102214935
4.6938775510204085,0.0022711270890429926,0.020058641023149693
4.697879151660665,0.028248003654015544,0.020827543815201417
4.70188075230092,-0.005448897067564317,0.018344503176504642
4.705882352941177,-0.023720523351799753,0.01844559297347244
4.709883953581433,-0.010328113118103917,0.018665674011063976
4.713885554221688,-0.024536017584461813,0.017741295081731577
4.717887154861945,0.0028731750518777043,0.017241663360778384
4.721888755502201,0.02142218526443132,0.015669661398354656
4.7258903561424574,0.007750912570371682,0.017089781641040684
4.729891956782713,0.007235034098801637,0.01706100766659072
4.733893557422969,-0.014239954260921709,0.019893946912538884
4.737895158063226,-0.0011684710676883182,0.02092827115178048
4.741896758703482,0.002411764072855208,0.0225719014773515
4.745898359343737,-0.01799722772765794,0.021749978898292114
4.749899959983994,-0.020603205979752164,0.024509512227470488
4.75390156062425,-0.008742935284042392,0.02243328870051287
4.757903161264506,-0.015045079869277065,0.022979498693702024
4.761904761904762,-0.009510280390328224,0.0247009443494075
4.765906362545018,-0.0056821296746381615,0.02325123849367817
4.7699079631852745,-0.016182536772918747,0.023273149048192023
4.77390956382553,0.016536870953441408,0.02167612827417131
4.777911164465786,-0.003539526257435748,0.024037095514364493
4.781912765106043,0.022927435310489713,0.021703660517758086
4.785914365746299,-0.007156815043173671,0.022438540876679874
4.7899159663865545,0.003124409479580983,0.02009760448158167
4.793917567026811,-0.015661502448930432,0.020535225879030745
4.797919167667067,-0.004916766529751554,0.01971891426031749
4.8019207683073235,0.0023695781865583376,0.021087723622481503
4.805922368947579,0.007438586030068825,0.020511981567868584
4.809923969587835,0.0170898356555563,0.021865448642921628
4.813925570228092,-0.021180999360918013,0.022798403357719505
4.817927170868347,0.005099252271313475,0.02290943002801527
4.821928771508603,-0.02949075661651795,0.022545535448782322
4.82593037214886,-0.012626316124788517,0.020101664872345815
4.829931972789116,0.00016346298814210266,0.019108726995441985
4.833933573429372,-0.020687700034942587,0.017923672442894313
4.837935174069628,0.00974856023303624,0.019104530097316625
4.841936774709884,-0.024239082945815855,0.021519178221580518
4.845938375350141,0.00602950180807294,0.01979245668161073
4.849939975990396,-0.007495928643465451,0.021810608737303283
4.853941576630652,0.016675852550910857,0.023226286173975125
4.857943177270909,-0.00245812487890013,0.019679770577575823
4.861944777911165,-0.005627233681160082,0.021787816307770453
4.8659463785514205,-0.0007934213421098076,0.02281982661016246
4.869947979191677,0.019207450190286596,0.02415617171640345
4.873949579831933,-0.00779945810327766,0.024329530432683225
4.877951180472189,-0.028819412330465123,0.02512819077151089
4.881952781112445,-0.0011859450260082221,0.02656731173512682
4.885954381752701,-0.009881756639988075,0.024287762729504798
4.889955982392958,0.018738270923101482,0.021864562077839583
4.893957583033213,0.014462835038906212,0.02119373466996719
4.8979591836734695,-0.008288902549436327,0.01959164580310542
4.901960784313726,-0.005985363210940494,0.01883964492151553
4.905962384953982,-0.018999110710140016,0.023304101732175366
4.909963985594238,0.008440447464518941,0.020265823644460175
4.913965586234494,0.010956567207866096,0.020286574993475623
4.91796718687475,-0.012110213215758352,0.019429575373410828
4.921968787515006,0.012351008310879015,0.020743447460815398
4.925970388155262,-0.00855252764101039,0.020866988918573304
4.9299719887955185,-0.020315244099432805,0.01920146294443896
4.933973589435775,0.030863932320823434,0.021778467669256785
4.93797519007603,0.014490552061839993,0.022216752623104363
4.941976790716287,0.018180962133297472,0.02380012106210045
4.945978391356543,-0.005565514350057457,0.02269440623934976
4.949979991996799,-0.006035315494618632,0.023403515509492642
4.953981592637055,0.0036365185546748937,0.020246033958216322
4.957983193277311,-0.0014250805614825447,0.023226285232089354
4.961984793917567,0.02803133639401741,0.026495205622816598
4.965986394557824,-0.037855899492962745,0.02583343179102388
4.969987995198079,0.019239874046398597,0.026412697814674254
4.9739895958383356,0.025880860493322763,0.02598840724765994
4.977991196478592,0.009388714689266294,0.025996189569243874
4.981992797118847,0.018529654113631097,0.023602772818029874
4.985994397759104,0.0026840981081463896,0.02250981295216073
4.98999599839936,-0.003916270928652673,0.025169978514045354
4.993997599039616,0.013576525138455899,0.02918103056722639
4.997999199679872,-0.005403668878735555,0.03025428216965152
5.002000800320128,0.00011321653491820857,0.03295395171106952
5.0060024009603845,0.005256600305354449,0.03125165184798153
5.010004001600641,-0.007165027627812128,0.029330031604699474
5.014005602240896,0.012689571510104806,0.027490643799617732
5.018007202881153,0.005070002217362089,0.025268274648982802
5.022008803521409,-0.005769150861813494,0.026516350964560047
5.0260104041616644,0.0032810360964517144,0.02641794350988032
5.030012004801921,-0.03534692129684034,0.025869030280372244
5.034013605442177,-0.006894480848864021,0.026465962324443204
5.0380152060824335,0.001511314662150152,0.023215093432550314
5.042016806722689,0.0165026103922567,0.019294302569187446
5.046018407362945,0.0047853449003745375,0.017086705813707186
5.050020008003202,0.0019428934157517598,0.013953399777819082
5.054021608643458,-0.004250565066715413,0.013001853313059666
5.058023209283713,-0.026839163397247578,0.015621901321794673
5.06202480992397,-0.005685924225584172,0.016277858368540263
5.066026410564226,-0.023629718750381647,0.015903177939877285
5.070028011204482,0.0008926294372247335,0.01635904771699922
5.074029611844738,0.0027061852202305355,0.016262715864112005
5.078031212484994,0.02176673531782035,0.016547770576987277
5.082032813125251,-0.021602329364910106,0.016391035205241197
5.086034413765506,0.006086273103613708,0.019456169372685326
5.090036014405762,0.0143316496898573,0.01836503536608456
5.094037615046019,-0.010810046007228524,0.021256548464810537
5.098039215686275,-0.03784464976413976,0.02049681026782191
5.1020408163265305,-0.0052477855983546476,0.020407251311711214
5.106042416966787,-0.005030481261907215,0.01829152472873185
5.110044017607043,-1.6344598462554224e-05,0.02058293562191889
5.1140456182472995,0.022306930980429063,0.021295691780456334
5.118047218887555,-0.002347051662443771,0.02095746671669315
5.122048819527811,-0.011926197119011439,0.021896085694810857
5.126050420168068,0.0207740883616057,0.02748940381278662
5.130052020808323,-0.00028395916286530357,0.0276447658962766
5.1340536214485795,-0.001972901255266477,0.024247079840668047
5.138055222088836,0.007415469073938678,0.02336378705292928
5.142056822729092,-0.003913036917793057,0.02315770318538488
5.146058423369348,-0.015865879638971913,0.023384295057508418
5.150060024009604,0.002327699835467001,0.024820727835363834
5.15406162464986,-0.006289173268056146,0.024666078292565122
5.158063225290117,-0.01864498939161992,0.02134478043906427
5.162064825930372,0.009445570982601226,0.02070393721507072
5.166066426570628,-0.01072393703010093,0.0196264300878199
5.170068027210885,0.000235324654185998,0.018551909790666947
5.17406962785114,0.04343700320286845,0.015127724857791219
5.178071228491397,0.00621081757657175,0.014672789772022472
5.182072829131653,-0.01640625642543962,0.014868887832925844
5.186074429771909,0.0030272197354918656,0.01777113961759599
5.190076030412165,0.007027924826324575,0.015767402608197863
5.194077631052421,0.001253866238444681,0.017072480394489133
5.198079231692677,0.004361953170144079,0.01525109962030347
5.202080832332934,-0.013680327454463348,0.018781870955212502
5.206082432973189,0.0013096782648377983,0.019705246520083715
5.2100840336134455,-0.0076582121181131765,0.02195389269196197
5.214085634253702,-0.013181051180401141,0.021270224898867162
5.218087234893958,0.0016304652624555534,0.021755509206553558
5.222088835534214,0.001389457825115665,0.019479028955833366
5.22609043617447,-0.007122202709422402,0.019795955680057896
5.230092036814726,-0.01688478927578674,0.020947461367479228
5.234093637454982,-0.013311304776032318,0.018246704645015124
5.238095238095238,0.007083487650625079,0.017968242872196748
5.2420968387354945,0.009302807258028503,0.01835104924415927
5.246098439375751,-0.0038061885951866884,0.018568405330185632
5.250100040016006,0.009145447527135168,0.012017603327755123
5.254101640656263,0.005576244032642373,0.01215959267575693
5.258103241296519,0.012552202748970733,0.012234145754328343
5.262104841936775,0.008951807459477018,0.013836355925492882
5.266106442577031,-0.027520901405884726,0.013845012341876252
5.270108043217287,-0.013009370489884717,0.015098998002034012
5.274109643857543,-0.003211974398662476,0.015012412598348663
5.278111244497799,-0.011760831025710178,0.014305900476372542
5.282112845138055,0.013369598512917665,0.014970610564063503
5.286114445778312,0.01189124877616435,0.015733070377983112
5.290116046418568,6.20772870849527e-05,0.015074174882731326
5.294117647058823,0.015105159263009508,0.019107778257398508
5.29811924769908,-0.006225744964532973,0.020918103841652744
5.302120848339336,-0.015817610438064757,0.020308909387661157
5.306122448979592,0.025293095961433084,0.019510621742962364
5.310124049619848,-0.0019954006830687674,0.019519703622175217
5.314125650260104,0.006107279291653251,0.020268729300736085
5.3181272509003605,-0.005445864957845709,0.018829068748526894
5.322128851540617,-0.008964036059261648,0.020589393138719235
5.326130452180872,0.005528111081544139,0.020134517753681525
5.330132052821129,-0.020023693863932348,0.021730072570342998
5.334133653461385,-0.02336851561115091,0.02371504144353462
5.3381352541016405,-0.016606512094087828,0.022631267277142326
5.342136854741897,0.003329525643289758,0.01929512964140253
5.346138455382153,-0.034293889022135295,0.01811677245694509
5.3501400560224095,-0.0007919508326197565,0.019012915542250933
5.354141656662665,0.005153237303805899,0.01804188824626913
5.358143257302921,0.013076991372505384,0.01907856377056391
5.362144857943178,-0.021131337824582538,0.02086666583192323
5.366146458583434,-0.008361942108028046,0.02344420789030314
5.370148059223689,0.021571065764645785,0.021609621742576125
5.374149659863946,0.0042183294062632035,0.025982501363614213
5.378151260504202,0.014217105816736932,0.02364157705645436
5.382152861144458,-0.013860232770013862,0.020503885539915643
5.386154461784714,0.00337609496358756,0.02223034319223048
5.39015606242497,-0.021350089868383666,0.02457101806011991
5.394157663065227,0.00811334854134397,0.025025328623626993
5.398159263705482,0.007418852578552555,0.02698944221686488
5.402160864345738,-0.010921004183173873,0.026785384635284463
5.406162464985995,0.005038845268135961,0.025880746605522507
5.410164065626251,-0.02466977562471318,0.024399402624183896
5.4141656662665065,-0.010059785209480641,0.022338168317809166
5.418167266906763,-0.019355575073995938,0.02514568412283716
5.422168867547019,0.007681330139757592,0.021066883910708187
5.4261704681872756,-0.006290338430232523,0.02209932280427879
5.430172068827531,0.0011084513055818924,0.022997912685887127
5.434173669467787,-0.021339841071807416,0.02174560882074421
5.438175270108044,-0.0021950665007487973,0.0222968801308368
5.442176870748299,0.007813529021626827,0.02256139578541038
5.4461784713885555,0.0095837546459033,0.02221623316718168
5.450180072028812,0.01891484447177517,0.022755751751098733
5.454181672669068,0.004110825139087808,0.02152080014567665
5.458183273309324,-0.018002888663486,0.019534134936060037
5.46218487394958,0.011519252874440465,0.02233279875625874
5.466186474589836,0.012646978054895591,0.019348539763111967
5.470188075230093,0.00234124721268082,0.019301829347736093
5.474189675870348,-0.010673084938746531,0.01963911050577893
5.4781912765106044,-0.002240577154082827,0.020884511741433118
5.482192877150861,-0.01727907262049677,0.020739930742351042
5.486194477791116,0.0011690164359807345,0.019701262347722417
5.490196078431373,0.011965055317628839,0.019928640274690775
5.494197679071629,0.017671541403253,0.01888347365696298
5.498199279711885,-0.0060265465573977545,0.018051514844205547
5.502200880352141,0.0031028585658560122,0.018734325323299755
5.506202480992397,0.004500460358168999,0.0189107049956144
5.510204081632653,0.004572297271505523,0.018278057123704925
5.51420568227291,0.00578727010913129,0.018118203539898986
5.518207282913165,0.011094153300068629,0.01876499104030281
5.5222088835534215,-0.024372880378121,0.020025028676490482
5.526210484193678,-0.004422410168866212,0.01801709487139147
5.530212084833934,-0.005792600077514959,0.017860058607157992
5.53421368547419,0.00823202384819633,0.015756446289589877
5.538215286114446,0.017225901608667975,0.014674144569818614
5.542216886754702,-0.01352523376986611,0.013605435608487019
5.546218487394958,-0.00958098395905734,0.014969095584574085
5.550220088035214,0.01638208870222425,0.017103456736714637
5.5542216886754705,0.027101098531152657,0.0174433756535933
5.558223289315727,0.021023330719034155,0.015653839387934364
5.562224889955982,-0.021003798399279943,0.01675422141222261
5.566226490596239,-0.0004838562725758487,0.01757383554446759
5.570228091236495,-0.004353731578248089,0.016927861086185537
5.574229691876751,0.018779239713528125,0.01748162505597544
5.578231292517007,0.015071735830042723,0.01955046419002113
5.582232893157263,-0.00938593018393497,0.023071533124478422
5.5862344937975195,-0.004599207200499971,0.025634523707684768
5.590236094437775,0.011005925494960517,0.028005184422778183
5.594237695078031,0.008516473986982825,0.026352152018873396
5.598239295718288,0.010510579477364966,0.023233266508030988
5.602240896358544,0.013876176062664121,0.025469990361582873
5.606242496998799,-0.003082131686916948,0.026915634346799774
5.610244097639056,-0.00994827021070295,0.027095407312542827
5.614245698279312,-0.007711946838017589,0.025128230054750525
5.618247298919568,-0.017176984805658334,0.024735734142237085
5.622248899559824,-0.02622447745658282,0.024569888692900523
5.62625050020008,-0.023498842893199427,0.023655136261053502
5.630252100840337,-0.0020607260335140432,0.021594757996157198
5.634253701480592,0.014828226842953011,0.018799606900184253
5.638255302120848,-0.00707066478236251,0.017077209658085655
5.642256902761105,-0.003634544481199005,0.01820331083056688
5.646258503401361,0.012248247399546811,0.020201110991435196
5.6502601040416165,-0.007057659186542762,0.021361042632571593
5.654261704681873,0.0027965390566380417,0.02267394471349144
5.658263305322129,-0.02592968773521173,0.02153271371925179
5.6622649059623855,0.002083716700625151,0.02312634497060508
5.666266506602641,-0.019864541846288074,0.022513250590788726
5.670268107242897,0.027165727994781112,0.021752669841189627
5.674269707883154,0.008015485144028773,0.02202339000813214
5.67827130852341,-0.0030243774971067264,0.020961098414070744
5.6822729091636655,0.009674750223496186,0.020916604478515104
5.686274509803922,0.0044824957727674945,0.023406431196833402
5.690276110444178,-0.010401041643837504,0.022529580457439764
5.694277711084434,-0.008351417616009695,0.022948288705096923
5.69827931172469,-0.014732256153218555,0.023094930937242072
5.702280912364946,-0.006661005623765662,0.02068269949694305
5.706282513005203,0.00958924004293807,0.020832831683748138
5.710284113645458,0.002921518958950176,0.020029945221413083
5.714285714285714,0.02147045704489997,0.019626721143090213
5.718287314925971,-0.026350008921970782,0.020680908320111616
5.722288915566227,-0.019927523155249247,0.020073801291156906
5.7262905162064826,-0.0008843142265091393,0.02126946597801273
5.730292116846739,0.010724613657389033,0.02187153097607228
5.734293717486995,0.0013685932119161567,0.019325769112888854
5.738295318127251,-0.021734541193150353,0.019456294608780945
5.742296918767507,0.0006164942498445595,0.019706488345520846
5.746298519407763,-0.020638779570010198,0.019579403301968838
5.75030012004802,-0.02078170992402963,0.021435240587020406
5.754301720688275,0.00014817330541778975,0.021101829192076624
5.7583033213285315,0.0006198683013692686,0.021265392782370357
5.762304921968788,-0.01386476195511186,0.020780261987035243
5.766306522609044,-0.014212007254816812,0.02254596580815451
5.7703081232493,0.0007558944206576617,0.02134090256318967
5.774309723889556,0.011213535428220907,0.022261110034957895
5.778311324529812,0.0022454134393218566,0.0244610467298319
5.782312925170069,0.004855649817410018,0.022990174688822085
5.786314525810324,0.02324408120992328,0.022631588768975405
5.7903161264505805,-0.004507316193567354,0.021446658657682364
5.794317727090837,-0.020257829869651793,0.019555617339756404
5.798319327731092,-0.0007214775474099919,0.016568771311620226
5.802320928371349,0.006618146732333399,0.01817801347602781
5.806322529011605,0.012340693841347283,0.016856995536252604
5.810324129651861,0.0006680068762299838,0.017400261907419747
5.814325730292117,-0.004658811570177581,0.017635440862000463
5.818327330932373,0.01978985356984409,0.018241611898883993
5.822328931572629,0.006649582106511905,0.018182261798003828
5.826330532212886,0.012731618678576674,0.01505697566675893
5.830332132853141,0.006252430830767597,0.016064965895437912
5.834333733493398,-0.016347267537056186,0.017891013212293916
5.838335334133654,0.0011849199250440242,0.015835023288989992
5.842336934773909,0.005828548958794087,0.014346682106209402
5.846338535414166,0.01224173626551875,0.01731207988599616
5.850340136054422,-0.02001005696779715,0.016601038271313238
5.854341736694678,0.006711923934179246,0.01823473778128637
5.858343337334934,0.017968810069417186,0.018452349434405626
5.86234493797519,-0.009954727234989295,0.017377859582198642
5.8663465386154465,0.004705617414288793,0.016860246486518963
5.870348139255703,-0.01829149378038847,0.014612235064323298
5.874349739895958,0.009207970721097924,0.016407035050888828
5.878351340536215,-0.014970087112565986,0.0184934291934887
5.882352941176471,-0.01891644232953162,0.01761649436060292
5.886354541816727,-0.0008095469383295005,0.020311874915719733
5.890356142456983,-0.01037273120233058,0.02113695268494684
5.894357743097239,0.026324977667903874,0.01878690243765634
5.8983593437374955,0.018928832635615407,0.020600655359977956
5.902360944377751,-2.8367652877582757e-05,0.020051688235064053
5.906362545018007,0.02010264068641412,0.02140985646377405
5.910364145658264,-0.011525096369008314,0.021810121335931052
5.91436574629852,0.005046386473323654,0.021751640059772447
5.918367346938775,-0.007270990986952195,0.02245960143713547
5.922368947579032,0.005097340203530134,0.024653701595673365
5.926370548219288,-0.01149336778192788,0.0244852521307474
5.9303721488595444,-0.004020649981332268,0.02344398673754627
5.9343737494998,-0.012058473742274969,0.023776427115530067
5.938375350140056,0.016685595192323783,0.024021082949188546
5.942376950780313,-0.019424611722400637,0.024074173102590773
5.946378551420568,-0.032748090892653264,0.02235723264581846
5.950380152060824,-0.01031360645822478,0.021716816507758176
5.954381752701081,-0.015471888718010116,0.021175160633475364
5.958383353341337,0.0017085155732841566,0.018854469010082708
5.9623849539815925,0.0044274603882848455,0.020606996810943804
5.966386554621849,-0.002576300750975262,0.021590510157447007
5.970388155262105,0.02986519606410527,0.020515466878530123
5.9743897559023615,0.0033482558959373266,0.02266843975361751
5.978391356542617,0.007032594953786965,0.02427082967569827
5.982392957182873,0.017519272567760244,0.023549381158434045
5.98639455782313,0.02034475841165816,0.022020005863017274
5.990396158463386,0.021539434453981137,0.021923580204853316
5.9943977591036415,0.02313250473814819,0.02119217041809082
5.998399359743898,-0.018315587126364392,0.025050881272903554
6.002400960384154,0.0008523405711689457,0.023781912661932067
6.00640256102441,0.031126526189015503,0.024251158963458294
6.010404161664666,-0.015722592459926906,0.02510192472301643
6.014405762304922,-0.0008623692375875265,0.025672004463203082
6.018407362945179,-0.0003351512139794551,0.026001483505567188
6.022408963585434,-0.001976058105054889,0.02450342219260402
6.02641056422569,-0.005274933761986063,0.025750091659592547
6.030412164865947,-0.03602890450065255,0.02347243753223348
6.034413765506203,-0.004767721302102075,0.028055619763627606
6.038415366146459,0.03204753580877241,0.029815346119301603
6.042416966786715,0.006902557244038463,0.02954832396880362
6.046418567426971,-0.011420338570638278,0.024947687351418144
6.050420168067227,-0.004823504311926486,0.02473390564417491
6.054421768707483,-0.019907450294102246,0.024460070623571403
6.058423369347739,-0.02064589509749597,0.02734378078645756
6.062424969987996,-0.009653812691544195,0.02491695455980214
6.066426570628251,0.010307595388947518,0.02655406537752732
6.0704281712685075,-0.01707560399253144,0.024025518904990325
6.074429771908764,-0.01650488845333774,0.022951272890382162
6.07843137254902,0.011970034520481754,0.023569960786458444
6.082432973189276,-0.01751466912154576,0.021822083611285625
6.086434573829532,0.01845102689843964,0.022589110092546598
6.090436174469788,-7.73518894025408e-05,0.02395877400193868
6.094437775110045,0.016938714761626592,0.025512432049836806
6.0984393757503,-0.009294836469125345,0.027864867478512457
6.1024409763905565,0.01353246559365525,0.02961443951698474
6.106442577030813,-0.011927138327049,0.025866185196158045
6.110444177671068,-0.019694444750980495,0.027852097347516824
6.114445778311325,-0.02503525541884254,0.02573382773164056
6.118447378951581,-0.01099116887245588,0.024670494105326082
6.122448979591837,0.019430983635381826,0.025530230136938
6.126450580232093,-0.015132372073840907,0.02622684182700845
6.130452180872349,0.014852339259478774,0.025233650377520223
6.1344537815126055,0.006973763862547997,0.02387531069805899
6.138455382152862,0.004221150450408329,0.025439592084991604
6.142456982793117,0.017892544670659816,0.027734089515179246
6.146458583433374,0.01712887958979348,0.026786164269836907
6.15046018407363,0.01868987126605475,0.02724203559373061
6.154461784713885,-0.0030154932826911103,0.02773471232410325
6.158463385354142,-0.003121394876817696,0.027319934347532306
6.162464985994398,-0.015111327174789161,0.025531832878053405
6.166466586634654,-0.0042756408814990324,0.026177416435125153
6.17046818727491,-0.016106443492294318,0.02632601847174675
6.174469787915166,-0.0008311061117935606,0.027546524089873806
6.1784713885554225,0.005644807732284123,0.028350022679448472
6.182472989195679,0.034994961064365906,0.026961631949928802
6.186474589835934,-0.008064160518668201,0.024379631803982386
6.190476190476191,0.007533204835936203,0.022833532300929875
6.194477791116447,0.010343974737200242,0.021787285871671856
6.1984793917567025,0.003690672790157034,0.02126933877081633
6.202480992396959,-0.008542339546671409,0.019041271451789445
6.206482593037215,0.022284967495951116,0.01760678305481153
6.2104841936774715,0.0001183271359684348,0.021972348585238197
6.214485794317727,-0.01320567120156552,0.02257107076567343
6.218487394957983,0.010132659316909313,0.020957136265490426
6.22248899559824,0.016369687245084308,0.019900081260367946
6.226490596238496,-0.029390879098020604,0.017563279467825002
6.230492196878751,0.013525397753548059,0.01842433509539949
6.234493797519008,0.0042054714648460416,0.02140992602013306
6.238495398159264,0.00680002381643396,0.019074089913783
6.2424969987995205,-0.0051269801039907905,0.020465344979373776
6.246498599439776,0.016361937600672855,0.01953465861024972
6.250500200080032,-0.005553920440493625,0.021955493583811502
6.254501800720289,-0.009858009179811989,0.025655015409759244
6.258503401360544,0.017794504985350814,0.02231016240908378
6.2625050020008,-0.006190101187553317,0.021708997519351375
6.266506602641057,-0.011082815618174018,0.021594771500982168
6.270508203281313,-0.024814104936792935,0.020781989242639454
6.2745098039215685,0.003013319711599042,0.022756110351216052
6.278511404561825,-0.0017820303865958057,0.022290529264639505
6.282513005202081,-0.028348486356187353,0.020354469913489916
6.286514605842338,0.027206550145929053,0.023108332004862266
6.290516206482593,0.03181659049507133,0.02201534049529608
6.294517807122849,7.602806760892892e-05,0.022163370201787345
6.298519407763106,-0.0011635954471559083,0.02347896919400516
6.302521008403361,0.011654937633578494,0.019369474399590247
6.3065226090436175,0.027438915615818734,0.017539915176297022
6.310524209683874,-0.01855141779992108,0.02130127886290566
6.31452581032413,0.012552221292121567,0.024480515899002346
6.318527410964386,-0.0001933882028887168,0.028638626714348227
6.322529011604642,-0.0042203184415973245,0.026101361629736544
6.326530612244898,-0.014191752600141837,0.02541737045975747
6.330532212885155,0.01548717713409982,0.025697323127800396
6.33453381352541,0.006604673421287727,0.027199875153197786
6.3385354141656665,-0.0013025648298998695,0.029125707847817355
6.342537014805923,-0.008471049986781455,0.029354634067999787
6.346538615446179,0.010657539940286832,0.025518846769769784
6.350540216086435,0.0033313154345781942,0.025706891270973583
6.354541816726691,0.009441399750983294,0.02764026532160523
6.358543417366947,-0.033611184286691645,0.025636536222819212
6.362545018007203,-0.017430262617078137,0.022426864550212772
6.366546618647459,-0.014833846437778762,0.017672928532454574
6.370548219287715,0.0015150879282950103,0.018980831904803642
6.374549819927972,-0.008078198947903311,0.02045994204162205
6.378551420568227,0.008125477908082802,0.01916316239660772
6.382553021208484,0.02649850186767778,0.01635923741342622
6.38655462184874,-0.0019933734335154524,0.018705475405950505
6.390556222488996,-0.004264999713875018,0.019465450395985753
6.394557823129252,0.00925699455888126,0.021746362212834918
6.398559423769508,-0.01339940800925625,0.021324900524539718
6.402561024409764,-0.020734696942700838,0.02037243875424479
6.40656262505002,0.012505478843168044,0.01922552200564907
6.410564225690276,-0.02876890081163727,0.022324883218101037
6.4145658263305325,-0.0018626611110319283,0.0224325078212308
6.418567426970789,-0.0074523646695946804,0.02177722575178907
6.422569027611044,-0.0060818867444359355,0.02155902762853166
6.426570628251301,0.0059344323878641,0.023127587229486456
6.430572228891557,0.009491688259213642,0.02488702771983881
6.434573829531813,-0.003655116069588483,0.021598861996012863
6.438575430172069,-0.026324386737874378,0.023365366392939034
6.442577030812325,0.004467856045352042,0.02134451913422346
6.4465786314525815,0.005084298899537024,0.02226951782359924
6.450580232092838,0.02977310473488167,0.02195850214212572
6.454581832733093,-0.007728842688794953,0.021617147961939514
6.45858343337335,-0.012980278518807184,0.018967569546828628
6.462585034013606,-0.012564428023130077,0.019226460925388645
6.466586634653861,0.01251881714112355,0.022663205576972104
6.470588235294118,0.019255282255663968,0.02191708121031779
6.474589835934374,-0.0047856422681683405,0.020621627862993572
6.47859143657463,-0.013061715499935088,0.022029767608890097
6.482593037214886,-0.011848137391832115,0.021285591048669176
6.486594637855142,-0.023906962137961358,0.018825800884884402
6.490596238495399,-0.011513342164931668,0.020493083849621018
6.494597839135655,0.00859338692699587,0.021282412375163692
6.49859943977591,-0.018452335208863524,0.023334762992030397
6.502601040416167,0.009527066888035491,0.02315578710773402
6.506602641056423,-0.0182101852432977,0.023711979898232163
6.5106042416966785,0.020813189868584162,0.024988412565146095
6.514605842336935,0.022184626962890586,0.024611789631094536
6.518607442977191,0.016654008572421268,0.025709441923650444
6.5226090436174475,-0.004916468263210981,0.026256140682649698
6.526610644257703,0.0026272310607014476,0.02449242013692358
6.530612244897959,-0.00762988696462296,0.024772574675776555
6.534613845538216,0.019204269142132333,0.025587368574814577
6.538615446178472,0.011567267973330186,0.026872485342733284
6.5426170468187275,0.01955321160415017,0.028378371257515973
6.546618647458984,0.002554668537598431,0.027973105535106596
6.55062024809924,0.002590235371318223,0.027993487585535357
6.5546218487394965,0.010860835515219748,0.026367845923346265
6.558623449379752,0.015033528137121846,0.02571066312950985
6.562625050020008,0.007361429501063481,0.024978006551887314
6.566626650660265,-0.0021786928886262593,0.02498640792919641
6.57062825130052,-0.0017484014522558464,0.02669389503210293
6.574629851940776,0.021556055312741157,0.0242171162872681
6.578631452581033,0.012445057742564866,0.023136391850633625
6.582633053221289,-0.0013664857978732154,0.021991399093441
6.586634653861545,0.006732280575602179,0.02109095605202943
6.590636254501801,-0.013593981737282084,0.0187815743570224
6.594637855142057,-0.02423918490294416,0.01652639094226379
6.598639455782314,-0.012551064717249625,0.016032821621567623
6.602641056422569,-0.01927023251335529,0.018981839898375867
6.606642657062825,-0.012690858467171204,0.01973201996455581
6.610644257703082,0.006019813376848995,0.016952980527159305
6.614645858343337,-0.012868076408875027,0.016199713128498716
6.6186474589835935,0.008728172028576512,0.015271294249486629
6.62264905962385,-0.013098415942136505,0.01864963588516752
6.626650660264106,-0.004673647282836837,0.020201484399485797
6.630652260904362,-0.012595968240989446,0.021511627338858582
6.634653861544618,0.01509565231643197,0.021146650857423694
6.638655462184874,0.005388673388398998,0.020937633624335757
6.642657062825131,-0.006293980429350635,0.022602987317163748
6.646658663465386,0.015141497102158783,0.023690401449358463
6.6506602641056425,0.020138924991273885,0.022372742584208485
6.654661864745899,-0.002092296036184052,0.02116199482844932
6.658663465386155,0.012187720415111757,0.022911493292955304
6.662665066026411,-0.013719934056441356,0.024214465722254018
6.666666666666667,-0.014275225962737729,0.022936118796660052
6.670668267306923,0.016883951423000036,0.020140343672487418
6.674669867947179,0.0018628190175520142,0.020543920373618754
6.678671468587435,-0.004812698198775486,0.020679258414703465
6.682673069227691,0.02149992561976759,0.01902805420356466
6.686674669867948,0.012988683875416568,0.019988983965672363
6.690676270508203,-0.007443184941402182,0.020121699222492462
6.69467787114846,0.000465010085450701,0.020985903106287295
6.698679471788716,-0.016285784869828176,0.021575671026995293
6.702681072428972,0.008555822575640316,0.021137757725201028
6.706682673069228,0.001604017483323898,0.0199251623044712
6.710684273709484,-0.01237069161741661,0.020922916775099595
6.71468587434974,0.016971088426624654,0.022106961253072602
6.718687474989996,-0.0014426171900017804,0.02228600169767208
6.722689075630252,0.003091139453991665,0.019999476772757784
6.7266906762705085,-0.014163049387040789,0.0193991763795613
6.730692276910765,0.008770716506336833,0.020406162214692485
6.73469387755102,-0.00985391185896838,0.01875727304088191
6.738695478191277,0.030942811537766787,0.018547067665231037
6.742697078831533,-0.00312149919581851,0.018967069857227046
6.746698679471789,0.010138134862643524,0.016561385475297737
6.750700280112045,-0.02123184463338774,0.016752751794124818
6.754701880752301,0.00015608347837942017,0.018209490796062495
6.7587034813925575,0.006099248980160836,0.01622634224837727
6.762705082032813,0.011639728075708967,0.015737960093889437
6.766706682673069,-0.00813262993613784,0.019399087029619778
6.770708283313326,0.02310875586680406,0.019812955045631
6.774709883953582,-0.015601455478024617,0.018855181229930098
6.778711484593837,-0.00269217822270448,0.020830043494367543
6.782713085234094,-0.009172021860648824,0.02060446245524234
6.78671468587435,-0.0054080934215194575,0.01962740235298962
6.7907162865146065,-0.002662924329695229,0.018796802474954032
6.794717887154862,0.020188334889982246,0.01983907375381117
6.798719487795118,0.009983817951723477,0.022957720526241277
6.802721088435375,0.0038250390613129843,0.023181817162952693
6.806722689075631,0.0023660864184506278,0.022234810615898996
6.810724289715886,0.02363956633527328,0.02212857548787194
6.814725890356143,-0.00752908618108189,0.018150391242759856
6.818727490996399,0.016289048957520057,0.018078947520557366
6.8227290916366545,0.0024622114435714068,0.019644719550112075
6.826730692276911,0.005078066071112297,0.01789233198390176
6.830732292917167,0.020553230878929362,0.018463937326463
6.834733893557424,-0.0010936267408779342,0.017882328850511654
6.838735494197679,-0.0004700575982227917,0.019751844985006095
6.842737094837935,0.009616335739319566,0.019657815818650365
6.846738695478192,0.011113070946948718,0.01859533882324021
6.850740296118448,-0.004688756551319494,0.016548308839490912
6.8547418967587035,-0.01018462085569909,0.01692001850183886
6.85874349739896,0.017110389404370787,0.018693155224975132
6.862745098039216,0.004268140424002046,0.018020982409248293
6.866746698679472,0.00325532113547113,0.017679344493252525
6.870748299319728,-0.0011727914123689988,0.01603227871132231
6.874749899959984,0.0037842876562933043,0.016208210807141778
6.878751500600241,-0.006237853157102441,0.01634277376943214
6.882753101240496,0.0024182342336375386,0.01756086321050325
6.8867547018807524,-0.00438586204367397,0.016543649365344783
6.890756302521009,0.0006628311188057689,0.01603560995892087
6.894757903161265,-0.025975393055577355,0.01400501888520299
6.898759503801521,-0.004344428395281273,0.013804133548223395
6.902761104441777,0.003947975896186552,0.01360256919638416
6.906762705082033,0.004451535426393798,0.011372303334174992
6.91076430572229,-0.010946330889841,0.011578670705636234
6.914765906362545,-0.009514134869792216,0.012188733894151399
6.918767507002801,-0.00804313494197095,0.010793821647315092
6.922769107643058,-0.017532154416758827,0.013109298771016221
6.926770708283313,-0.022889406901548247,0.013055654127701042
6.9307723089235695,0.01336756642136321,0.01208401533351737
6.934773909563826,0.003957643443968232,0.010111827771974651
6.938775510204082,-0.005975310672127021,0.01115225719735977
6.942777110844338,-0.006044701829818716,0.012127349778277069
6.946778711484594,0.0062573766466101684,0.013197715711573965
6.95078031212485,-0.00833906313325312,0.015339566140523278
6.954781912765107,0.015156724755073866,0.017933796805660013
6.958783513405362,0.02278359991315741,0.019639649230010586
6.9627851140456185,-0.0032944533638589,0.019572934865706347
6.966786714685875,0.025445880413464704,0.02040059320778358
6.97078831532613,0.02079826119937563,0.017295488954525463
6.974789915966387,-0.003685995094704244,0.01759351693981617
6.978791516606643,0.009624668821890002,0.018277626863641646
6.982793117246899,0.009423766955819458,0.01994544302414978
6.986794717887155,-0.012405882607267103,0.021789631666426095
6.990796318527411,0.011885142724986282,0.020820635695376965
6.9947979191676675,-0.012050986785398251,0.02353189835906548
6.998799519807924,0.011953828855784812,0.024040741828036165
7.002801120448179,-0.016698646225263545,0.02104894415262821
7.006802721088436,0.0015800061098933647,0.020465819005387284
7.010804321728692,0.0022662664561345766,0.02131741432504923
7.014805922368948,0.015327191596384689,0.022319265993940646
7.018807523009204,0.008479797704696854,0.02322917813191253
7.02280912364946,0.015991411735191245,0.02413179426699268
7.026810724289716,0.009605762422061083,0.02469495709423364
7.030812324929972,0.009806916158738029,0.024935180920946085
7.034813925570228,0.005273326995865335,0.02163176466924172
7.038815526210485,0.0015054552031386857,0.02147157817575007
7.042817126850741,0.0024585344368743727,0.019895135927590436
7.046818727490996,0.015534624518306306,0.017975979539201
7.050820328131253,-0.021277434805050125,0.019893103291492485
7.054821928771509,-0.01778920233327335,0.019890157766831174
7.058823529411765,-0.016456885623071262,0.019949850539457005
7.062825130052021,0.0027865292935747616,0.018838633245751694
7.066826730692277,0.0039534481547554064,0.01722152867539315
7.0708283313325335,0.00446408661900943,0.015727071496302335
7.074829931972789,-0.03715783369722055,0.016284941954270885
7.078831532613045,0.01982436714601118,0.016998294829633782
7.082833133253302,0.0029644008948190195,0.01952360835564255
7.086834733893558,0.00768471910873717,0.02173443744493542
7.0908363345338135,-0.009273048315240034,0.019780663568553132
7.09483793517407,0.018338943576286227,0.019075480437669465
7.098839535814326,0.009279391497477687,0.017279579540831258
7.1028411364545825,-0.0023129735046696956,0.02157205754540744
7.106842737094838,0.023813174988019527,0.023132727434627635
7.110844337735094,0.004121508830527887,0.022773008036258167
7.114845938375351,-0.00841909551897401,0.02373570714277387
7.118847539015607,-0.009253570248967566,0.024797375089355297
7.122849139655862,-0.021987735827964806,0.025234274288474506
7.126850740296119,-0.007568650647578848,0.023365037798725004
7.130852340936375,0.0006394138889376828,0.020953917009397544
7.1348539415766306,0.002815293614997449,0.02209999092808718
7.138855542216887,0.013101363537826058,0.022307974213325595
7.142857142857143,0.0037866682412436366,0.023003700240442262
7.1468587434974,0.0032302681105320467,0.023749878374548953
7.150860344137655,-0.009177887709374211,0.021386451292035664
7.154861944777911,-0.009713678172548187,0.019477070578895878
7.158863545418168,-0.0007891890860012014,0.019114848970073716
7.162865146058424,0.002526178467127072,0.018356216284419875
7.1668667466986795,-0.007724756014776621,0.01895264907974116
7.170868347338936,0.001190915676592043,0.016685475727568375
7.174869947979192,-0.01905871598140023,0.015743051877611155
7.178871548619448,-0.007792287747214358,0.01681257194863261
7.182873149259704,0.008808150559958722,0.014615939276207428
7.18687474989996,-0.00047044179127192026,0.014096780151481587
7.190876350540217,-0.01627732545052417,0.013178692484851214
7.194877951180472,-0.008056994104898501,0.012940510701427035
7.1988795518207285,0.0029545701051379393,0.00970046779600022
7.202881152460985,0.032296638853036276,0.011490563800907065
7.206882753101241,-0.003897943055086804,0.012604946578141039
7.210884353741497,-0.00974304465480951,0.01353860439151968
7.214885954381753,-0.00011013081277465519,0.011570768535073972
7.218887555022009,0.010609413391671601,0.013516751862355682
7.222889155662265,0.013367286188004599,0.014268732174761945
7.226890756302521,-0.009731164680812934,0.01329916971737384
7.230892356942777,0.004061699075609667,0.01681748458492431
7.234893957583034,0.022464300488422878,0.017301813254833414
7.238895558223289,-0.005451002847039814,0.018426165724134913
7.242897158863546,0.01912821568493261,0.017239844345017633
7.246898759503802,-0.004082158209349318,0.018707200242669503
7.250900360144058,0.004749278778411444,0.01782050330584914
7.254901960784314,-0.008668063921523833,0.018122570853074005
7.25890356142457,-0.0007913827392910586,0.01738309691687214
7.262905162064826,0.0032788133436850255,0.020809632575495892
7.266906762705083,0.022155512507084668,0.019122944442985117
7.270908363345338,0.002117469434878255,0.020847786638748873
7.2749099639855945,-0.0021248167275997997,0.02102345935268791
7.278911564625851,0.0007078425000066916,0.016731715330122306
7.282913165266106,0.013180738301402564,0.017474876840335565
7.286914765906363,0.005847458777317662,0.016080251677928686
7.290916366546619,0.010068972481023591,0.016573916924783657
7.294917967186875,0.0005594109920176536,0.01837274271891736
7.298919567827131,-0.0058042506612643475,0.016620076268324784
7.302921168467387,-0.016746099677771183,0.015435044444101929
7.3069227691076435,-0.006364997405549872,0.01491252998638642
7.3109243697479,0.010556798100750922,0.01346619638431609
7.314925970388155,0.006356356849913484,0.013527962280008868
7.318927571028412,-0.002950344023189084,0.012116576478827912
7.322929171668668,-0.0015646556806108163,0.011567749684825265
7.326930772308923,-0.0025799989842154093,0.011732109146492135
7.33093237294918,0.00388164901440583,0.012990627624379998
7.334933973589436,0.0009512331914884814,0.013858969540382127
7.3389355742296924,-0.009148551960910684,0.014992843983989281
7.342937174869948,-0.01426279870105296,0.012531412773537027
7.346938775510204,0.014607855036172613,0.01266117056253193
7.350940376150461,-0.019429260336200183,0.01257390020999809
7.354941976790717,-0.0019256844575248075,0.01286557303739949
7.358943577430972,-0.02088271014613821,0.011416820389063708
7.362945178071229,0.012088745307948385,0.01065401238008605
7.366946778711485,-0.021341030855082883,0.010510615362922143
7.370948379351741,0.008518908398591766,0.012645536173113505
7.374949979991997,-0.009653603608851154,0.014017094694535983
7.378951580632253,-0.00951369732881186,0.014435118007339855
7.3829531812725095,0.016305401650467198,0.013743494753519077
7.386954781912765,-0.01598982569699953,0.015352221367549537
7.390956382553021,0.005361195396544224,0.016245299464076737
7.394957983193278,-0.015109597888067242,0.01911047856174137
7.398959583833534,-0.008719196688896268,0.02019391713636173
7.4029611844737895,0.0058463712626843954,0.021295950154536024
7.406962785114046,0.001318975600844541,0.02217339574724159
7.410964385754302,0.01834984607838301,0.024565500127725848
7.4149659863945585,0.017238549944691237,0.02563133712931353
7.418967587034814,0.01635624462540758,0.024244510853769014
7.42296918767507,0.0016267460554593826,0.0243226799371095
7.426970788315327,-0.00484213749051867,0.022654104381589966
7.430972388955582,0.0065051003458050215,0.023264928217878195
7.434973989595838,0.008028726317656732,0.020216994021411715
7.438975590236095,-0.010651866816917044,0.02119244291137435
7.442977190876351,-0.006956404023389362,0.02055329644226927
7.446978791516607,-0.010640362676256282,0.02177431511023438
7.450980392156863,0.0032871130972106735,0.02052376994614486
7.454981992797119,-0.009728737931108686,0.019795963762258638
7.458983593437376,-0.011831910112714259,0.018269124731960063
7.462985194077631,0.00035811230168171135,0.017028824369900396
7.466986794717887,0.005485831178388329,0.01785308511148265
7.470988395358144,-0.001949901461640569,0.016582857367743897
7.4749899959984,-0.004905081787367547,0.016882165636132332
7.4789915966386555,0.019557442844342396,0.016483445725980518
7.482993197278912,0.01005984675335454,0.017793645582312854
7.486994797919168,-0.0003913087263624502,0.016778183024581526
7.490996398559424,0.012145501520877055,0.014148293367045471
7.49499799919968,-0.0073902380467472245,0.012454736096668919
7.498999599839936,1.4452448907165492e-05,0.012505082129068423
7.503001200480193,-0.014783564877997262,0.012514888542787343
7.507002801120448,-0.015251631369486096,0.014548379692096311
7.5110044017607045,0.004851841632110275,0.014864818325976388
7.515006002400961,-0.0007915745305765257,0.01326627353859808
7.519007603041217,-0.0038935213603722833,0.014074709559582434
7.523009203681473,-0.010022842232430414,0.013568356031930339
7.527010804321729,0.012010677515744458,0.013058491502727042
7.531012404961985,0.022258539182636986,0.013846008828367114
7.535014005602241,0.006013826136251594,0.014378784681401044
7.539015606242497,0.016004534287331187,0.015078885741562511
7.5430172068827535,0.01760964731732054,0.014347543505716358
7.54701880752301,-0.0174391796567682,0.014650349983720947
7.551020408163265,0.009710889097486363,0.015447672040699228
7.555022008803522,0.020179994796251828,0.014271922898096255
7.559023609443778,-0.005283495061293728,0.016172419540049058
7.563025210084034,0.005749740577173566,0.0170483802644268
7.56702681072429,-0.013885044647888733,0.017649598702906878
7.571028411364546,-0.02246422536774415,0.019241732705305718
7.575030012004802,-0.007554592428527842,0.021956420016053125
7.579031612645059,0.006763088623087908,0.02116612192939637
7.583033213285314,-0.014344068839801216,0.021933936856872345
7.5870348139255706,0.027840773640564646,0.022001186350816573
7.591036414565827,0.007106697706056618,0.02277364438075941
7.595038015206082,-0.00803720173277919,0.024330274861116163
7.599039615846339,-0.012288901257541401,0.026268581528571245
7.603041216486595,-0.01905525311505267,0.025574345257462206
7.607042817126851,0.007824981474631959,0.023160229816427107
7.611044417767107,-0.0019673848022686824,0.024458040903683052
7.615046018407363,0.0012307248300931928,0.026302069128394428
7.6190476190476195,0.0038480057931188326,0.02466576092712431
7.623049219687876,0.017266907404059027,0.02320097873216027
7.627050820328131,0.014869296570920756,0.023602620422980922
7.631052420968388,0.006130590240480632,0.02342739116783123
7.635054021608644,0.016652100634570063,0.023823342325885153
7.6390556222488994,-0.0038115605855295037,0.023234069787820156
7.643057222889156,0.002566905518989861,0.021262588626266524
7.647058823529412,-0.003077614785433966,0.01836227262989767
7.6510604241696685,0.000356435590421802,0.019875403820276468
7.655062024809924,-0.012989984284886208,0.021138311387881536
7.65906362545018,0.004597190299444464,0.019858691577213174
7.663065226090437,0.005292315114675288,0.018115551023496348
7.667066826730693,0.020921159300853035,0.01760218476980647
7.671068427370948,-0.007935965090594407,0.016749939363582603
7.675070028011205,-0.013043953958713769,0.015314865964544932
7.679071628651461,0.019706217425383032,0.01240168161138065
7.6830732292917165,0.011922303720546307,0.013206363797891226
7.687074829931973,0.013616487134387269,0.013616074637421396
7.691076430572229,-0.011624110524364815,0.014248850546936677
7.695078031212486,-0.008055556109531235,0.016908764394022842
7.699079631852741,-0.004582411941352282,0.015455049199890521
7.703081232492997,-0.02043692241266094,0.015170669744877343
7.707082833133254,0.00041466696698948117,0.01728568609002081
7.71108443377351,-0.02298211073481529,0.016548806854452636
7.7150860344137655,0.01734926162799312,0.0180763664751844
7.719087635054022,0.0115914739954204,0.019487434734998352
7.723089235694278,-0.006165015572417612,0.020262973656495813
7.7270908363345345,-0.00415823861487017,0.02092136011147653
7.73109243697479,0.00891945872204642,0.022081556664239246
7.735094037615046,-0.01671904942122184,0.021429939977098335
7.739095638255303,-0.009630476387913102,0.024185923650578416
7.743097238895558,0.022338566405527453,0.023629439455897513
7.7470988395358145,-0.01611915119910207,0.024198949871749434
7.751100440176071,-0.018999146851782906,0.023127244901799217
7.755102040816327,0.011384574304598001,0.0207049458160708
7.759103641456583,0.004820000533436752,0.02023711724599761
7.763105242096839,0.0005988202794768999,0.020720481282082696
7.767106842737095,-0.024517055278783922,0.020409882830357336
7.771108443377352,0.007179533401655165,0.022635106005864096
7.775110044017607,0.0040417599970964295,0.02443247357993353
7.779111644657863,0.00257773013596565,0.02420847517672998
7.78311324529812,-0.0032399907169037346,0.02591753310884187
7.787114845938375,-0.0023266513705370423,0.023087965132716822
7.791116446578632,0.008501645747292704,0.02047832826232029
7.795118047218888,0.03079661200397643,0.022492070634031632
7.799119647859144,0.01634321036750701,0.022650127551922184
