time,ecg_signal,mechanical_signal
# Condition: normal
# Heart Rate: 75.32 bpm
# Duration: 10.0 s
# Sampling Rate: 250 Hz

0.0,-0.018661150501066433,0.0
0.004001600640256103,-0.000220424291184787,0.0
0.008003201280512205,-0.01747924051448321,0.0
0.012004801920768308,-0.017428597466944213,0.0
0.01600640256102441,-0.010861019446888397,0.0
0.020008003201280513,0.006245278788833448,0.0
0.024009603841536616,0.00433702633262064,0.0
0.028011204481792718,-0.012982034255728785,0.0029210779872848296
0.03201280512204882,-0.015996114731796678,0.0029555815697304
0.03601440576230493,-0.004817546926951314,0.005691652140427326
0.040016006402561026,0.006567971563498654,0.008419795424359874
0.044017607042817125,-0.0037034003249583553,0.010119898792797156
0.04801920768307323,0.00601735602492396,0.011097488378898812
0.05202080832332934,0.008229073637869472,0.011776374289484488
0.056022408963585436,-0.0008431067443372182,0.013808485572892219
0.060024009603841535,-0.007379957181893546,0.016312398642049645
0.06402561024409764,-0.004451364997051483,0.017066501679813845
0.06802721088435375,-0.005082420372396833,0.018094603197678583
0.07202881152460985,0.006351164322052894,0.01867430599610578
0.07603041216486595,0.001799821989134881,0.016695140257214032
0.08003201280512205,0.028276291426835094,0.017948754781846196
0.08403361344537816,-0.01940473641847128,0.015344657882958737
0.08803521408563425,-0.004300757699140476,0.013771718318641539
0.09203681472589036,-0.010829990666650129,0.012768398586642651
0.09603841536614646,-0.03217517406402859,0.012586373361435463
0.10004001600640257,0.0025116468241060254,0.012901651572387592
0.10404161664665867,0.018375236472034796,0.011151271064003225
0.10804321728691477,-0.0002957016723719598,0.013073518774389298
0.11204481792717087,0.006008819403716601,0.015356889144163471
0.11604641856742698,0.0063180044346114045,0.0150019963142029
0.12004801920768307,-0.012447092476944597,0.016117539869265212
0.12404961984793918,-0.003702227298226558,0.020212090549035146
0.12805122048819528,0.0033761567761965753,0.01931712699313638
0.13205282112845138,-0.009988694894310713,0.02206147644870037
0.1360544217687075,0.00398953181528062,0.020952559674036222
0.1400560224089636,-0.005955449290690034,0.021196352026670067
0.1440576230492197,-0.011525964596263835,0.02138976118466216
0.1480592236894758,-0.006259144906235955,0.022343972531079753
0.1520608243297319,-0.0012467591464512125,0.022641760937585766
0.156062424969988,0.017928256515784335,0.01874407868030738
0.1600640256102441,0.001548915424803345,0.017270161430563667
0.1640656262505002,0.018910560874757468,0.01722144444077441
0.16806722689075632,-0.005300414469671689,0.016458419915002943
0.1720688275310124,0.0175185581984443,0.013226145933413537
0.1760704281712685,-0.008134172844590533,0.013812751467433333
0.18007202881152462,-0.004450075364651448,0.011131586762791449
0.1840736294517807,-0.014090597658966374,0.013891656020565291
0.18807523009203683,0.0029946502322591335,0.013193535755286735
0.19207683073229292,-0.010906516787782707,0.015164681072337278
0.19607843137254902,0.013048373055821167,0.014045993143205336
0.20008003201280514,-0.0008657422588877914,0.016208699030785142
0.20408163265306123,-0.0011094211224239843,0.016953483549817818
0.20808323329331735,-0.01509080174745458,0.016086509158977934
0.21208483393357344,-0.005072352924623872,0.017667655031115823
0.21608643457382953,-0.0006587434835887741,0.01720419352300238
0.22008803521408565,0.008474262686656756,0.017107229760906218
0.22408963585434175,0.008523027040075364,0.018169965142482748
0.22809123649459784,0.007556447491486286,0.018110323586996567
0.23209283713485396,-0.014224466244247889,0.015477627932111607
0.23609443777511005,0.007639692730133741,0.017597374302580536
0.24009603841536614,-0.015743505142423155,0.015431243943989027
0.24409763905562226,0.017994392201373857,0.014704671220571432
0.24809923969587835,-0.011894799223283221,0.01328894433232455
0.25210084033613445,-0.0043515222054549005,0.013349812681820429
0.25610244097639057,-0.012579887919480101,0.01383606111754757
0.2601040416166467,0.016259588350049876,0.013857015912249668
0.26410564225690275,0.004671997587648159,0.014584116387098132
0.26810724289715887,-0.0024899295715951736,0.015341262641649046
0.272108843537415,0.0274194365581298,0.016115475766929697
0.27611044417767105,-0.013116585649838815,0.017841882481101197
0.2801120448179272,0.003988168701861279,0.018349376920184825
0.2841136454581833,0.004172904250985938,0.017956337106779637
0.2881152460984394,0.003954099568082289,0.019707503903163247
0.2921168467386955,0.007392078490385232,0.02033570891228519
0.2961184473789516,0.0006396273351366082,0.019398965825089837
0.3001200480192077,0.0024736377455185704,0.022356869512686908
0.3041216486594638,-0.01810584205363654,0.023227212269940692
0.3081232492997199,-0.011629999425670853,0.021624898231443732
0.312124849939976,0.01424973147395171,0.021082232895111304
0.3161264505802321,0.02116863251211062,0.01923680685321683
0.3201280512204882,0.016950723013147328,0.01757719936043726
0.32412965186074433,0.00019266946883982904,0.015815398294436896
0.3281312525010004,-0.008604592815616501,0.01552144819965197
0.3321328531412565,-0.01636621085099131,0.016386440043488583
0.33613445378151263,-0.002336665952006168,0.015661758556331163
0.3401360544217687,0.003442432857346375,0.017160985928285237
0.3441376550620248,-0.004625241694913217,0.020084811444158655
0.34813925570228094,0.013472495909667816,0.01844611672972016
0.352140856342537,0.0026000848280735784,0.016423102818349963
0.3561424569827931,-0.013106829261241702,0.01714572358376797
0.36014405762304924,-0.004307488236804013,0.019054373294269747
0.36414565826330536,-0.011120715934844316,0.01880119224138962
0.3681472589035614,0.008786479731451425,0.018182944030188167
0.37214885954381755,0.013563905860453201,0.01880682251889573
0.37615046018407367,0.008829480861408142,0.020528502137026908
0.38015206082432973,-0.0023499060349495525,0.018101345992222954
0.38415366146458585,0.009955426932873246,0.018332517972932554
0.38815526210484197,0.007525096349949657,0.016776233012763358
0.39215686274509803,0.008075785452073032,0.015203406732291013
0.39615846338535415,0.012862642260148244,0.013925436687966199
0.4001600640256103,-0.005132857822339902,0.016018470784877406
0.40416166466586634,-0.018402048399428904,0.01605367309033697
0.40816326530612246,0.002896031896541859,0.013859664770277915
0.4121648659463786,0.001711872309014078,0.015052249064066426
0.4161664665866347,-0.0009043861640355088,0.015691318903680723
0.42016806722689076,0.014003271362403048,0.016231441411809395
0.4241696678671469,-0.007208183422732034,0.01613597944814455
0.428171268507403,0.009158828760211382,0.016532440933191686
0.43217286914765907,0.004974728816726755,0.017361315233386843
0.4361744697879152,0.018202425795820584,0.01714037633439893
0.4401760704281713,-0.007956412536199003,0.01566758579023354
0.44417767106842737,-0.009633131825616129,0.014433781367929447
0.4481792717086835,0.006616722879403844,0.014502556382419832
0.4521808723489396,-0.005815249862303977,0.014248770515429077
0.4561824729891957,0.013818016882735089,0.01531458873969929
0.4601840736294518,0.02004702641492075,0.014534947225766098
0.4641856742697079,-0.022234921942594243,0.016206297124880805
0.468187274909964,-0.003298824606533705,0.016187611374673835
0.4721888755502201,-0.01734355623459012,0.01568208778225228
0.4761904761904762,-0.0035143644871125745,0.015914361004315564
0.4801920768307323,0.001449031974101638,0.013944116986665988
0.4841936774709884,0.017978948877961066,0.01565376344811011
0.4881952781112445,0.006086790346155515,0.018523812379400723
0.49219687875150064,0.007731356505462457,0.021862736124545954
0.4961984793917567,0.0014167030416466781,0.02018714148300198
0.5002000800320128,-0.0031007578822134377,0.02177365751329453
0.5042016806722689,-0.018189238029215748,0.02089011497194788
0.508203281312525,-0.014104043160547083,0.02033822855764329
0.5122048819527811,0.020471036859720893,0.02030324713967614
0.5162064825930373,0.013464353225157245,0.020010590359293645
0.5202080832332934,0.025593234412037865,0.0197129005665799
0.5242096838735495,-0.008195348192222363,0.018898928058258463
0.5282112845138055,-0.014914445490562915,0.01847402163197727
0.5322128851540616,0.0073779779746567286,0.019158260144914018
0.5362144857943177,-0.0014961050040116922,0.018227989657991942
0.5402160864345739,-0.00448554402721745,0.01795188417953353
0.54421768707483,0.009287450011631292,0.01954312057598605
0.5482192877150861,-0.007859823721130867,0.020834463964752435
0.5522208883553421,-0.032520481487045165,0.02156719040940834
0.5562224889955982,0.00014686457933304047,0.023674966294414727
0.5602240896358543,-0.025547349601953654,0.02201556899478309
0.5642256902761105,-0.001566276345097502,0.02129697718562743
0.5682272909163666,0.0049002426182126625,0.020788901792284768
0.5722288915566227,0.008642294251342109,0.022020930102446934
0.5762304921968788,-0.005901409364318448,0.022765878944765446
0.5802320928371348,0.005274997991210886,0.02500918542218188
0.584233693477391,0.012176237598555925,0.02282443228405903
0.5882352941176471,-0.002287069126073662,0.023619040601861416
0.5922368947579032,-0.011139131620726328,0.021756603960381093
0.5962384953981593,0.006642210879173129,0.01851747661844394
0.6002400960384154,-0.010366291767340854,0.01858743823708711
0.6042416966786714,0.028432319656522775,0.017176604461030746
0.6082432973189276,0.012894293749260008,0.0168474195837643
0.6122448979591837,0.021771834903758874,0.018519208266965986
0.6162464985994398,0.0007428097577646534,0.018175075324092915
0.6202480992396959,0.003963007429060619,0.01846492381909747
0.624249699879952,0.016022491067827518,0.018274327742533236
0.6282513005202081,0.030477566411479817,0.014806475323001975
0.6322529011604642,0.003953431247581205,0.01923407051235491
0.6362545018007203,0.009057348037923503,0.01725345506632029
0.6402561024409764,0.015763427884218906,0.02041628322759188
0.6442577030812325,-0.011851178106845016,0.01976550954610985
0.6482593037214887,-0.015497053749488872,0.01903304871889679
0.6522609043617448,-0.01728684827116291,0.020617327725163958
0.6562625050020008,-0.0038760018219734195,0.02456235071992949
0.6602641056422569,0.0026998777965252197,0.023275213647423403
0.664265706282513,0.0012939236848191061,0.02433498285597531
0.6682673069227691,-0.0272729670681036,0.025058835869282276
0.6722689075630253,0.018005354140884982,0.02587420893560907
0.6762705082032814,-0.0037466386714102265,0.02667734033327901
0.6802721088435374,-0.010232374961037235,0.024932710969734293
0.6842737094837935,-0.009038532299153905,0.02352105448959391
0.6882753101240496,-0.0035866454139104275,0.020535671885386474
0.6922769107643058,0.01962407838461144,0.02062193916889147
0.6962785114045619,0.012353678617169024,0.024270707232908483
0.700280112044818,0.006457210400132698,0.024581089900588972
0.704281712685074,-0.018703076482134588,0.020396828882129448
0.7082833133253301,0.019739433030651753,0.02137968812565405
0.7122849139655862,0.004705795366164891,0.02137674284956664
0.7162865146058424,0.0295141678759721,0.01947067970367747
0.7202881152460985,0.012408552872805729,0.020687391818905634
0.7242897158863546,-0.037434275199303584,0.0201953512073542
0.7282913165266107,0.032775793502435556,0.018500160077872408
0.7322929171668667,0.005562599473268547,0.020821080291401062
0.7362945178071229,-0.0020878342927871966,0.023488325791869352
0.740296118447379,0.014096160758712126,0.024022394860293086
0.7442977190876351,-0.011303824043037933,0.02437321579947235
0.7482993197278912,-0.014774112370033034,0.02349713407115341
0.7523009203681473,-0.0034358268228152906,0.028770346647176422
0.7563025210084033,-0.014404322499898857,0.03229912605740968
0.7603041216486595,-0.017465503102433298,0.03175502933291275
0.7643057222889156,-0.01827710915503011,0.0315204165649186
0.7683073229291717,-0.019460408914980114,0.030655117370658548
0.7723089235694278,0.00990872670856849,0.03049078092815628
0.7763105242096839,-0.010362907262924551,0.031792647030425454
0.7803121248499401,0.005393764861524533,0.029402825089721904
0.7843137254901961,0.0001323623476137183,0.028567706487027868
0.7883153261304522,0.006552098206381387,0.030565016427295033
0.7923169267707083,0.011203722358851241,0.028806050662044124
0.7963185274109644,0.016083233396380604,0.029909895864574373
0.8003201280512205,0.007364358453721869,0.025601250811868086
0.8043217286914767,0.011119542372795391,0.022092903959297916
0.8083233293317327,-0.007968414870920301,0.022066475842348263
0.8123249299719888,0.007502319523055459,0.021760380778516438
0.8163265306122449,-0.015824889792066588,0.02057948922228287
0.820328131252501,-0.016851625767186986,0.02056382004764376
0.8243297318927572,0.013420972497050912,0.020768740136174052
0.8283313325330133,0.004218466145832625,0.021383683318200133
0.8323329331732694,0.011433950533335478,0.020869508218342044
0.8363345338135254,0.009188642338851968,0.019382904518597532
0.8403361344537815,-0.005259461544897029,0.017696298925347145
0.8443377350940376,0.015269682919379213,0.01712722174644069
0.8483393357342938,-0.009484073170265114,0.018214011631496923
0.8523409363745499,0.010760402446287561,0.018692698464796778
0.856342537014806,-0.0070846060846366625,0.018508725927482126
0.860344137655062,-0.013498001359005089,0.020277792656180526
0.8643457382953181,-0.024540152880244477,0.020690497704962202
0.8683473389355743,0.005248543012935282,0.01976002723834605
0.8723489395758304,-0.0021395185297060915,0.019632680085244318
0.8763505402160865,0.011107927427940544,0.019964484493416493
0.8803521408563426,0.010156332284481562,0.01990826739503249
0.8843537414965986,-0.03719690287409672,0.01976992252768712
0.8883553421368547,-0.0016579647538401895,0.020708442059414543
0.8923569427771109,0.012648063931643614,0.022072664654308554
0.896358543417367,-0.004255763988286481,0.020256404203692072
0.9003601440576231,-0.010732060289280216,0.018490489136092417
0.9043617446978792,-0.02108851457968603,0.0195689142682549
0.9083633453381353,-0.01299456977739268,0.0193689253906845
0.9123649459783914,0.006534415313547791,0.023753130603914333
0.9163665466186475,0.008218530456806782,0.02318937902830639
0.9203681472589036,0.02310166946567468,0.022779010250899834
0.9243697478991597,0.012667339606998684,0.021960609538611266
0.9283713485394158,-0.00025079693541315906,0.021956173067722635
0.932372949179672,-0.0074147884490396495,0.024148240959705074
0.936374549819928,-0.011785648330286898,0.024069437516633974
0.9403761504601841,0.014463072795977623,0.021250953005301217
0.9443777511004402,-0.022406824838069397,0.02171585279507086
0.9483793517406963,-0.00989027496217491,0.02499711231128883
0.9523809523809524,0.016571955371760552,0.02524121111908154
0.9563825530212086,0.008939137909879134,0.02369067213924844
0.9603841536614646,-0.003296603624958296,0.01902880100451531
0.9643857543017207,-0.004016821039633051,0.020614113418969817
0.9683873549419768,-0.02285529595320293,0.02089822143471247
0.9723889555822329,-0.005007278201414057,0.02373945377411932
0.976390556222489,0.02306733444451796,0.023607686947155135
0.9803921568627452,-0.003282882367458631,0.022900698292849724
0.9843937575030013,0.006722208249529518,0.02226589108970058
0.9883953581432573,0.016376528785948627,0.021759068080584833
0.9923969587835134,0.016242775940673033,0.021101363675555138
0.9963985594237695,0.010458490747700546,0.021062798194617066
1.0004001600640255,0.0017049532283064084,0.01986374903889515
1.0044017607042817,0.0023755579886400352,0.023435280465111123
1.0084033613445378,0.012806791806799922,0.022788502556120735
1.012404961984794,0.022585140405009144,0.021995909229198543
1.01640656262505,0.001682520483320631,0.022295427427265868
1.0204081632653061,0.0042166094989233545,0.021330552965441937
1.0244097639055623,0.0018278650204225696,0.021419497246933678
1.0284113645458184,-0.001258820325791119,0.019092327081531576
1.0324129651860745,-0.008836295728282843,0.018064912998749242
1.0364145658263306,-0.02449162197994176,0.019553567267483977
1.0404161664665867,-0.0022843526855824163,0.022460114157825766
1.0444177671068429,0.01547342657248808,0.019145885040426868
1.048419367747099,-0.0029536302295724124,0.01902211963046736
1.0524209683873549,0.000601557692179429,0.015697450736510972
1.056422569027611,0.0028317758585884732,0.015380619088083086
1.0604241696678671,0.005054547838164252,0.015711542650219724
1.0644257703081232,0.002022653439949136,0.01698181910463145
1.0684273709483794,-0.010455852961892527,0.014796871134498539
1.0724289715886355,-0.001204498426870161,0.015581871965213443
1.0764305722288916,-0.00769572925401515,0.015777330594702474
1.0804321728691477,0.00947737130815545,0.015499641755789152
1.0844337735094038,0.0287418275385102,0.013938226798685062
1.08843537414966,0.014832625036388556,0.011194117958871394
1.092436974789916,-0.009810761314314647,0.011247359847269477
1.0964385754301722,-0.007096845538839445,0.012224004708257468
1.1004401760704283,0.020715494546271074,0.012126427528633382
1.1044417767106842,0.03402500230709959,0.013134013474382969
1.1084433773509403,0.00032790752990749105,0.013234362687280895
1.1124449779911965,0.0013497146661805063,0.013899658318322527
1.1164465786314526,0.0092453584975732,0.01586387173272589
1.1204481792717087,0.0015670698558952292,0.014977480144272236
1.1244497799119648,0.006896183120306102,0.015626028315821987
1.128451380552221,-0.017811555234657824,0.018774514695521168
1.132452981192477,-0.00013408129268258225,0.023657270832444757
1.1364545818327332,0.020639387173350197,0.022917397642017775
1.1404561824729893,0.001585245359903495,0.02281206080125152
1.1444577831132454,0.0005326716795143789,0.02262257898268673
1.1484593837535015,0.006686257576639091,0.022679333223004493
1.1524609843937577,-0.018453450488140843,0.02255417820585468
1.1564625850340136,-0.0014582898708348825,0.023858749497335234
1.1604641856742697,0.0019065606638623534,0.019380705240645824
1.1644657863145258,0.0011802769265842593,0.020289652684947736
1.168467386954782,-0.023587570725062002,0.019002091471231705
1.172468987595038,-0.010618557764055476,0.017974584417789895
1.1764705882352942,0.004452258772776822,0.015778551794396568
1.1804721888755503,-0.009136906158535761,0.013341096652301978
1.1844737895158064,0.006048070564915044,0.013518038313702213
1.1884753901560625,0.01821887276858595,0.013605202852996998
1.1924769907963186,0.008250359584466658,0.012342754846839712
1.1964785914365748,-0.005975206455575814,0.015789680606011613
1.2004801920768309,-0.0003627068839058875,0.01637235350346572
1.2044817927170868,-0.003008316369953273,0.014281188394530842
1.208483393357343,-0.02291149900639981,0.015690423775678503
1.212484993997599,0.012486680742126225,0.0134064073776559
1.2164865946378551,-0.0028574767046777305,0.016010111949323294
1.2204881952781113,-0.031137392783202242,0.017218181529524264
1.2244897959183674,0.0045583786089092,0.017106878864800917
1.2284913965586235,-0.00893090848118416,0.014275088139308155
1.2324929971988796,0.007120198940672629,0.014517717782428184
1.2364945978391357,-0.0008524736722188325,0.01780567492168146
1.2404961984793919,0.015755446996175315,0.019575495453327964
1.244497799119648,-0.0022767686196576626,0.01633056040423606
1.248499399759904,0.003415843135088122,0.01954242653734149
1.2525010004001602,-0.003528056248917091,0.01955903774881652
1.2565026010404161,-0.0003027367288736272,0.019526792401419038
1.2605042016806722,-0.030618760630420787,0.019694615419500905
1.2645058023209284,0.016292565451458352,0.016976208206831885
1.2685074029611845,0.010164364641723041,0.018150998883844954
1.2725090036014406,0.004616262156714677,0.0175720728766181
1.2765106042416967,-0.00897202401467934,0.018049988163513195
1.2805122048819528,0.011430541426449827,0.018131344386403556
1.284513805522209,0.00043088395090669357,0.014592336552729887
1.288515406162465,-0.01179247537961348,0.0174305977533113
1.2925170068027212,-0.0011358477708882902,0.019533626823957092
1.2965186074429773,-5.11485854745926e-05,0.016250664670724415
1.3005202080832334,-0.017108983483500474,0.01625972533165799
1.3045218087234896,0.011161256012314717,0.016266161252091797
1.3085234093637454,0.011724831438082362,0.016940870271353114
1.3125250100040016,-0.007087717673682443,0.01687487774562325
1.3165266106442577,0.00035021247923746815,0.016254543583873047
1.3205282112845138,-0.011960572489789219,0.016075952302677173
1.32452981192477,-0.012770393229762643,0.015549267992283145
1.328531412565026,0.00825121349797294,0.01767512553732526
1.3325330132052822,-0.015247336465354713,0.01937483754873394
1.3365346138455383,-0.024519019818540096,0.01641732211291427
1.3405362144857944,0.016930653633186785,0.014976463564646712
1.3445378151260505,0.001347471450243392,0.013440229030550751
1.3485394157663066,0.0016264938875009563,0.014589852857040259
1.3525410164065628,0.00016552490427693372,0.015184421380622237
1.3565426170468189,-0.016484952399476272,0.014686752985219554
1.3605442176870748,0.027142780218617876,0.017006010486901015
1.364545818327331,0.004865368502313716,0.01899812929075645
1.368547418967587,-0.014083291435810498,0.021470530963695146
1.3725490196078431,-0.007762769976521671,0.021673447723006087
1.3765506202480993,0.016904536450715157,0.019249933720230317
1.3805522208883554,-0.011004318657964354,0.017528743588252297
1.3845538215286115,-0.004706008981514782,0.018273857591611643
1.3885554221688676,0.017527144580708486,0.02141312822394932
1.3925570228091237,0.021776972543002135,0.022119897234113554
1.3965586234493799,0.008336761055174556,0.022452171902069364
1.400560224089636,-0.012461346697733126,0.021668315727026894
1.404561824729892,-0.004109424934041536,0.023022842672869664
1.408563425370148,0.014490275626112359,0.02235867215904646
1.4125650260104041,0.0027765043597765488,0.01925729050443931
1.4165666266506602,0.004996185654626031,0.019350660769917892
1.4205682272909164,0.01970782277234638,0.022548543233266473
1.4245698279311725,-0.018519419610588138,0.02359891864882144
1.4285714285714286,0.016538363607955377,0.025523615326788294
1.4325730292116847,-0.0017183658877096182,0.02358644211454426
1.4365746298519408,0.01254666559944172,0.021605912958687763
1.440576230492197,-0.006836651185536177,0.021278937670382508
1.444577831132453,0.0077800982167597265,0.01985650958032291
1.4485794317727092,-0.02490931965341488,0.021726299482978946
1.4525810324129653,0.007329526380763103,0.02197908130637576
1.4565826330532214,-0.011063242641985353,0.02284533962646914
1.4605842336934773,0.007109660153996671,0.02237767615230772
1.4645858343337335,0.010598239372588034,0.021598068940122082
1.4685874349739896,0.005739415894953932,0.019259421929169504
1.4725890356142457,0.021165779178801365,0.01917228606026688
1.4765906362545018,0.004971974618690035,0.02112079935182845
1.480592236894758,0.02140105634580834,0.021624850131136242
1.484593837535014,-0.014273401609203124,0.021088407824909707
1.4885954381752702,0.002015761351166536,0.021766687870143187
1.4925970388155263,0.026799842187987342,0.022643591777980525
1.4965986394557824,0.017308552524613247,0.0204570810457158
1.5006002400960385,-0.0015998793717401682,0.02087132252995368
1.5046018407362947,-0.01479588660066329,0.01906080584894916
1.5086034413765508,-0.009086346228787151,0.022141788118740492
1.5126050420168067,-0.002054536167539021,0.022412078557032485
1.5166066426570628,-0.009571507304246003,0.021657452245353707
1.520608243297319,-0.0048794418015301174,0.0246346617928021
1.524609843937575,-0.019614287853482498,0.023444894123056777
1.5286114445778312,0.01323387547865476,0.022548017708496338
1.5326130452180873,0.002703995556058764,0.0231322980882855
1.5366146458583434,-0.001784726967647979,0.02344171385450597
1.5406162464985995,-0.015783147609704746,0.02210434597031591
1.5446178471388556,0.029372240244071472,0.022704193115876768
1.5486194477791118,0.003019868004200455,0.02015485074797065
1.5526210484193679,-0.019564959742613373,0.022446849779361417
1.556622649059624,-0.004956240732382699,0.021168419907213243
1.5606242496998801,0.00699529639494416,0.01935743095742322
1.564625850340136,-0.00033115863244048466,0.019321266549876995
1.5686274509803921,-0.022239471399340623,0.017596794951867948
1.5726290516206483,-0.0052730324842309405,0.019485155084903363
1.5766306522609044,-0.008539168020375397,0.019707429565581143
1.5806322529011605,-0.022652447814223212,0.020453944876837306
1.5846338535414166,0.0033529911864270366,0.019807448818085636
1.5886354541816727,-0.010365166272488301,0.02058083875135373
1.5926370548219289,-0.011885995200974263,0.019134423156639713
1.596638655462185,-0.0022930705995367075,0.02185183333528221
1.600640256102441,0.01243857501716675,0.01960695966756504
1.6046418567426972,-0.011544253827089308,0.01887208500845235
1.6086434573829533,-0.00327668833993873,0.021994667657812394
1.6126450580232095,-0.010742916348404989,0.022240152098198865
1.6166466586634654,-0.022543195119018762,0.021392061514568527
1.6206482593037215,0.007628402414806379,0.01865489450695339
1.6246498599439776,0.004834333280361664,0.01854112703587181
1.6286514605842337,0.02423201430145601,0.017425615666450327
1.6326530612244898,0.00956726359234017,0.018456854336852346
1.636654661864746,0.014449764834853891,0.017874771033242767
1.640656262505002,-0.014511066264057447,0.019504550304960705
1.6446578631452582,-0.0028001819312302857,0.019552092961653673
1.6486594637855143,0.0039700984386187325,0.01992078508788262
1.6526610644257704,0.0015721700105221254,0.019340857756769577
1.6566626650660266,0.0038455997854811566,0.019588111370368845
1.6606642657062827,0.009495351793277452,0.02056084744743264
1.6646658663465388,0.0018512389054578303,0.021200220188504506
1.6686674669867947,-0.008934105576143193,0.021611129328162983
1.6726690676270508,0.0010383242001507512,0.021690508771998893
1.676670668267307,0.001656615147051537,0.020364916305552618
1.680672268907563,0.016679901742649085,0.01880396032257241
1.6846738695478192,0.015918007651316263,0.018893013497519658
1.6886754701880753,0.016650397599167956,0.018697729002092028
1.6926770708283314,0.011592847115980116,0.01545876376220287
1.6966786714685875,-0.018721531682049167,0.015663148843513438
1.7006802721088436,-0.018323768895381152,0.01506894975792631
1.7046818727490998,0.008292020694176986,0.011535164339908756
1.708683473389356,-0.01369318386873466,0.01264852392249196
1.712685074029612,0.0054664704792802745,0.01287835175496736
1.716686674669868,-0.012823478702815335,0.013213226803005948
1.720688275310124,0.014974195719886133,0.01458956534758125
1.7246898759503801,0.013971828246824957,0.016898645215182327
1.7286914765906363,0.0048612407106175155,0.019520816166088622
1.7326930772308924,0.019059741408827578,0.02021682589163326
1.7366946778711485,-0.0011087180649719983,0.020873923366370176
1.7406962785114046,0.004800203894501726,0.02143982488292599
1.7446978791516607,-0.00417087493569143,0.02204863848335271
1.7486994797919169,0.008015133193915391,0.024230056372223082
1.752701080432173,-0.0305472216436964,0.026157788421349106
1.756702681072429,0.004395310750706027,0.02430778294725599
1.7607042817126852,-0.01476187226673909,0.024799566630177978
1.7647058823529413,0.0009991257170438794,0.022366787473813498
1.7687074829931972,0.01253194365225836,0.02130351752223114
1.7727090836334534,-0.006876311411419782,0.019025865717220827
1.7767106842737095,0.01427143606251539,0.01741222840023068
1.7807122849139656,0.011521351980476791,0.020895892367922626
1.7847138855542217,-0.00580628677944295,0.019440472323371313
1.7887154861944778,-0.02622064297509915,0.020895505524178643
1.792717086834734,-0.0178394670586387,0.01904460907389554
1.79671868747499,-0.0059008903829774004,0.018662317062813977
1.8007202881152462,-0.011570405463177497,0.017551637523783064
1.8047218887555023,0.010640186040971797,0.019024639657113915
1.8087234893957584,-0.014921428884701111,0.01784463612959948
1.8127250900360146,-0.008463788129503814,0.018579958668518762
1.8167266906762707,-0.011238957360327423,0.021932955209259006
1.8207282913165266,-0.012097433424612817,0.02407253516523409
1.8247298919567827,0.006304958358818421,0.02374158728855021
1.8287314925970388,-0.0048995241070410025,0.02077109733882838
1.832733093237295,0.003761484434488716,0.021748623764259217
1.836734693877551,0.009011004549133677,0.021773599572928026
1.8407362945178072,-0.0006539983981668868,0.02294206242061274
1.8447378951580633,-0.009582354470152274,0.02273966794364817
1.8487394957983194,-0.013920297653825724,0.023556943629881713
1.8527410964385755,0.009430985278921207,0.022309930341224356
1.8567426970788317,-0.012388258613198507,0.021273398556349837
1.8607442977190878,0.028227318519775176,0.020953320374790085
1.864745898359344,-0.012203634789124673,0.018259451313911657
1.8687474989996,-0.008492000977467678,0.01556936560872383
1.872749099639856,-0.010030843604757483,0.016145634671309844
1.876750700280112,-0.004818079022012822,0.01651346935278904
1.8807523009203682,0.00822325273955902,0.01632419004077491
1.8847539015606243,0.006923375199968254,0.015927666368897996
1.8887555022008804,0.001456223731711358,0.019021302721638267
1.8927571028411365,0.009310044848260174,0.01917230616603625
1.8967587034813926,-0.014666096140359899,0.0186079385320366
1.9007603041216488,-0.0034103399035655146,0.01919116095310008
1.9047619047619049,0.000744004746031457,0.019178412144014875
1.908763505402161,0.007515643980266469,0.019876824237072117
1.9127651060424171,0.019526921998982136,0.01955004223415604
1.9167667066826732,-0.0013355052568276243,0.019675616633361762
1.9207683073229291,0.01754354416642963,0.019632991306365474
1.9247699079631853,0.015467591891615479,0.019749733065767758
1.9287715086034414,-0.014083661017720303,0.018807305926873262
1.9327731092436975,0.010939280212898687,0.016984600855833074
1.9367747098839536,-0.02135022496071537,0.01374254905555907
1.9407763105242097,-0.011884462322820144,0.01488888207838404
1.9447779111644659,-0.001646697274226723,0.013768657357273457
1.948779511804722,0.00850833599729087,0.014944639740273304
1.952781112444978,0.0114320390496092,0.016611635439007157
1.9567827130852342,-0.0007683702117332549,0.01752898025206466
1.9607843137254903,0.009013309910019284,0.01815760021478494
1.9647859143657465,-0.012817219731361821,0.021271659504202275
1.9687875150060026,-0.016321381715664437,0.021674639707088952
1.9727891156462585,0.00812627628203698,0.01963667964490686
1.9767907162865146,0.01814560646561654,0.0204346821136075
1.9807923169267707,0.013304482372909689,0.022107707671690957
1.9847939175670268,-0.006350355278027393,0.02105153951751845
1.988795518207283,-0.02343149614019848,0.019405816718264135
1.992797118847539,-0.00976647556220102,0.02120307907922815
1.9967987194877952,-0.006736512110380111,0.021011770840670605
2.000800320128051,-0.001962734879301409,0.019862615785968877
2.0048019207683074,0.0029347356491332462,0.02049844257664416
2.0088035214085633,-0.00554781056268171,0.02086867376708935
2.0128051220488197,-0.008011519529893584,0.018520705503303203
2.0168067226890756,-0.0016931645531562977,0.020328192469364043
2.020808323329332,0.0057416690596266695,0.021599202293612535
2.024809923969588,-0.0014922980933654874,0.021321854133695774
2.028811524609844,-0.010931337793329098,0.01983959954466549
2.0328131252501,0.009177059521093808,0.020178706310416194
2.0368147258903564,0.011428994321829138,0.019636242765208773
2.0408163265306123,0.004265736623367822,0.018883994125919526
2.0448179271708686,0.010435382118910446,0.01659420158905623
2.0488195278111245,-0.003263728466098286,0.016220932874176877
2.0528211284513804,-0.0008544111371496958,0.013614147590554156
2.0568227290916368,0.010273947679422331,0.013242673152702056
2.0608243297318927,0.012282497431321891,0.0136851444537354
2.064825930372149,0.01188498318205075,0.011806361907504864
2.068827531012405,0.03051868755858363,0.010945317063184686
2.0728291316526612,-0.010543930343018645,0.011524310719504457
2.076830732292917,-0.000867168781441261,0.0117279585989733
2.0808323329331735,0.010460472914327874,0.01140232004104961
2.0848339335734294,0.017053827923706702,0.012142114465611585
2.0888355342136857,-0.013317190809884706,0.01281066164502205
2.0928371348539416,0.010886910586504903,0.014406013284545117
2.096838735494198,-0.013239843294368035,0.018284423853267347
2.100840336134454,0.000787001511251247,0.019701299180002872
2.1048419367747098,-0.009790134093316206,0.01812592886404836
2.108843537414966,-0.011181012951286332,0.018326824870505645
2.112845138055222,-0.003477772372686676,0.019207294572287727
2.1168467386954783,0.009943687622845598,0.020624142026341573
2.1208483393357342,0.00021173056976349133,0.020694820941194507
2.1248499399759906,-0.023152843023172838,0.022256407908826496
2.1288515406162465,0.0025143197352233593,0.022245856106335445
2.132853141256503,0.009202265288413128,0.022170123518666582
2.1368547418967587,-0.013235829049966586,0.02199770531391635
2.140856342537015,0.00014238436465597218,0.020681702936233736
2.144857943177271,0.006092019478567889,0.017461045163968486
2.1488595438175273,-0.0171900474783234,0.01584371930208445
2.152861144457783,-0.01746463092092309,0.01933215333275166
2.156862745098039,-0.005837667031322591,0.01808832149431549
2.1608643457382954,0.0010477314216574868,0.01685929615751038
2.1648659463785513,-0.0021282001677998866,0.01684656039151942
2.1688675470188077,0.00019060744812530802,0.015164692007860336
2.1728691476590636,-0.0019628189863806766,0.014045824722366287
2.17687074829932,-0.013633366582349505,0.016613435786651823
2.180872348939576,0.00632835465999388,0.017814744556190365
2.184873949579832,0.0007050526678360283,0.01697833684679633
2.188875550220088,-0.00687420324865966,0.016597956273270258
2.1928771508603444,-0.0045566342901351455,0.015374577877413573
2.1968787515006003,0.03295422526758319,0.015371271420738434
2.2008803521408566,0.0040297751008003275,0.012054342340702741
2.2048819527811125,0.004479807981684887,0.013794835403168145
2.2088835534213684,-0.010762668117829454,0.013344974764960462
2.212885154061625,-0.001123709678529652,0.011383500039629974
2.2168867547018807,-0.006634113018522971,0.012437249000891914
2.220888355342137,-0.01620367273424634,0.012196911199871676
2.224889955982393,-0.004835861632360909,0.014664518581593377
2.2288915566226493,0.01392191803974905,0.01256152597155771
2.232893157262905,0.0019509672686613426,0.01234897679461894
2.2368947579031615,-0.014415295637887373,0.013869680876043707
2.2408963585434174,-0.0025807923923893417,0.013712445390671216
2.2448979591836737,0.008804417794106734,0.014721063925823171
2.2488995598239296,-0.009636073912911557,0.01695022146895835
2.252901160464186,-0.001871976862765359,0.01557312534345567
2.256902761104442,-0.005928165029557576,0.016761765391794994
2.2609043617446978,-0.015225679025137821,0.01695679161562292
2.264905962384954,-0.01500467741269062,0.018137218244570333
2.26890756302521,-0.025590415509350664,0.017827934619558547
2.2729091636654664,-0.002668790618668513,0.014047703009299183
2.2769107643057223,0.0037039203829043158,0.014925271412665489
2.2809123649459786,-0.004044349812049755,0.014517060885903118
2.2849139655862345,-0.0021215758423017454,0.013760303656502687
2.288915566226491,-0.01879969996530334,0.015967721266332717
2.2929171668667467,0.00978598545642073,0.017277987286188026
2.296918767507003,0.0003953928912794567,0.01874731832722407
2.300920368147259,-0.005815554846239524,0.018408101115797684
2.3049219687875153,0.00200084030341347,0.01680865160555278
2.308923569427771,0.0036751076440051716,0.017136334170789514
2.312925170068027,-0.02646523553902447,0.015211966523967273
2.3169267707082835,-0.0193101113602743,0.017750753930796174
2.3209283713485394,0.0007444290491197506,0.017904401246981325
2.3249299719887957,-0.011951719243594294,0.01645793362869232
2.3289315726290516,0.02392990872058626,0.017075232055067974
2.332933173269308,0.014590127929682159,0.01646047779295517
2.336934773909564,-0.017012206627678918,0.014652437082921748
2.34093637454982,0.015124037235631202,0.016446387786171204
2.344937975190076,-0.012915204926710985,0.015463315590152417
2.3489395758303324,-0.011646236255565483,0.015162090313604512
2.3529411764705883,0.013659490725624349,0.01645313952807484
2.356942777110844,-0.00041441797768595876,0.019565877319309213
2.3609443777511006,-0.007157045947071481,0.02151761191539855
2.3649459783913565,-0.03675547955463949,0.021237810975973378
2.368947579031613,-0.0022741182003842017,0.02207338997986958
2.3729491796718687,0.010845113078051713,0.024033148427750527
2.376950780312125,0.022842745903459902,0.024945840017407857
2.380952380952381,-0.022394826347016367,0.02677079861831636
2.3849539815926373,-0.0004946779356406104,0.026260394460378297
2.388955582232893,0.018018458840926652,0.023238033776445503
2.3929571828731495,-0.018982357273893507,0.025968802225568025
2.3969587835134054,-0.012214078790861406,0.026208248411208706
2.4009603841536618,-0.00943596513853452,0.026035028495824848
2.4049619847939177,-0.011207244994005165,0.025864852097884066
2.4089635854341735,-0.004574177380993188,0.027086541657858884
2.41296518607443,-0.004940763194765457,0.024501010317553716
2.416966786714686,-0.0034489874632945994,0.024954081591839136
2.420968387354942,0.006086470547135478,0.025903788586906003
2.424969987995198,-0.026884916407493572,0.025992674442577232
2.4289715886354544,-0.012956093012612191,0.02533155509623911
2.4329731892757103,-0.006783032474260465,0.02702098412775254
2.4369747899159666,-0.0023596029452548303,0.02661668105372771
2.4409763905562225,0.0002944542261618464,0.02163664149908033
2.444977991196479,0.003499310306007548,0.021820546813044173
2.4489795918367347,0.018219726804901006,0.02107566423221817
2.452981192476991,0.005042534858414242,0.021708395599960476
2.456982793117247,-0.0023231425767908467,0.020230926342670905
2.460984393757503,0.017329493015770418,0.021215258686914918
2.4649859943977592,-0.005955613579216422,0.018764137612665058
2.468987595038015,0.006026991782923155,0.015838871980295693
2.4729891956782715,-0.014028725877007592,0.014474726806934842
2.4769907963185274,-0.004330783284784301,0.015849671660828665
2.4809923969587837,0.014540716226694263,0.014884693693685794
2.4849939975990396,0.021086436241041017,0.014532333413713147
2.488995598239296,-0.018209269306986957,0.01647157322470383
2.492997198879552,-0.009365301087733488,0.016863941871489783
2.496998799519808,0.008785158838047008,0.016854631507220358
2.501000400160064,0.0038784353455732132,0.014842218866488682
2.5050020008003204,0.012438975605038772,0.013492076902946196
2.5090036014405763,0.012008570442142617,0.014706407136243252
2.5130052020808322,0.018014155556439693,0.01763776662068381
2.5170068027210886,-0.023800491699300548,0.02044201880094922
2.5210084033613445,-0.007133004716643353,0.021360237457678677
2.525010004001601,-0.004834238717194971,0.01988342021610802
2.5290116046418567,-0.0005397970097597298,0.019701200718881703
2.533013205282113,0.013592994534710186,0.021284658136481713
2.537014805922369,0.007096837947010456,0.020451760411286105
2.5410164065626253,0.021711317640866815,0.02233931506802627
2.545018007202881,0.0011284093590828291,0.025121446821359045
2.5490196078431375,0.03922677317497365,0.024042041814318182
2.5530212084833934,0.00449123242739362,0.02412084899081621
2.5570228091236498,0.012267077651199328,0.021929249018241986
2.5610244097639057,-0.01991544124939437,0.020756281273508665
2.5650260104041616,0.029251390573759282,0.019016823750298294
2.569027611044418,0.010824136262600684,0.020949377543375034
2.573029211684674,0.0028928227533232104,0.019750846812063547
2.57703081232493,0.0038991724567008523,0.0252840132432902
2.581032412965186,-0.0004766451904632602,0.02403993251828422
2.5850340136054424,0.014371564342646428,0.02408039731802349
2.5890356142456983,-0.01453152009254666,0.02437801046812976
2.5930372148859546,0.006630076113630681,0.02523125371871
2.5970388155262105,0.00683388609614284,0.025809036053537234
2.601040416166467,0.010641418277109271,0.025505141208688038
2.6050420168067228,-0.03185519328697557,0.026030992906230694
2.609043617446979,-0.020648347361490862,0.023977856935818366
2.613045218087235,-0.017712966630926353,0.025116588609227133
2.617046818727491,0.017294064642445473,0.023992716392969026
2.6210484193677472,-0.020258647485675626,0.024853906470674474
2.625050020008003,0.0010343942005549267,0.019783364363146407
2.6290516206482595,-0.017164618764032094,0.02074606880638469
2.6330532212885154,0.01095013984620248,0.023812247035470076
2.6370548219287717,0.014152454404490604,0.023926970718271375
2.6410564225690276,0.013472994743813617,0.02212083147806518
2.645058023209284,-0.006915026524782835,0.023133586043685022
2.64905962384954,-0.0052237461647275905,0.025851903349674393
2.653061224489796,0.011236055277280922,0.02540347222523746
2.657062825130052,-0.0002625631106843796,0.02801568374217245
2.6610644257703084,-0.015572226239476709,0.027480119346978898
2.6650660264105643,-0.017102204276144103,0.02742078321778085
2.6690676270508202,0.0021851912950176904,0.028491922908673237
2.6730692276910766,0.0026981994019360978,0.02850462402910874
2.6770708283313325,0.013013015516845992,0.02765658184923882
2.681072428971589,-0.019909718846360724,0.0244290150304907
2.6850740296118447,-0.01114744208885322,0.02123797567709362
2.689075630252101,-0.0002262926471572112,0.020902880065834403
2.693077230892357,-0.009595529300562209,0.020872847668174717
2.6970788315326133,0.002780464618521539,0.018043762986087692
2.701080432172869,5.287465353908946e-05,0.01830420270273897
2.7050820328131255,0.0029917961064675432,0.017654341545646723
2.7090836334533814,0.0037133357348183107,0.019056807539970386
2.7130852340936378,-0.0073489365528887195,0.01858642521674618
2.7170868347338937,-0.015466603537273221,0.01651288479401332
2.7210884353741496,0.0192051947739146,0.01693247080253608
2.725090036014406,-0.003170799798053397,0.01655001764451917
2.729091636654662,0.002430621928662383,0.014799485556694487
2.733093237294918,0.030520561095523868,0.015226699432157202
2.737094837935174,0.008488018566766913,0.013370396735021833
2.7410964385754304,-0.0063986405282279325,0.011843692599128989
2.7450980392156863,-0.009740673235363245,0.013922666290418322
2.7490996398559426,-0.01764238510820107,0.01650654882298476
2.7531012404961985,0.006685844370473918,0.014965921428085886
2.757102841136455,0.008134270817832582,0.012229873334963816
2.7611044417767108,0.006010618131447195,0.015262397587538758
2.765106042416967,-0.010105893252711023,0.016555626840438962
2.769107643057223,-0.008059615487879606,0.01605520960088398
2.773109243697479,-0.025744959543774946,0.017144708995704503
2.7771108443377353,0.0033728137812707613,0.019898040404359784
2.781112444977991,-0.029644623320722898,0.020476279300581116
2.7851140456182475,-0.0026906398117661403,0.021168299664141774
2.7891156462585034,-0.004631696040138154,0.02095880923210077
2.7931172468987597,-0.028703215345998276,0.02011968343395927
2.7971188475390156,0.007575537350192456,0.01837503718044376
2.801120448179272,0.001981310389737663,0.02190862859062558
2.805122048819528,0.0037932662541795203,0.02205611230982586
2.809123649459784,-0.006995075253192319,0.02191899951219551
2.81312525010004,0.0212673417393616,0.02101152087285772
2.817126850740296,0.014417293195842529,0.020734936497815118
2.8211284513805523,0.01942774396467201,0.02370319209058643
2.8251300520208082,0.0002927954249895195,0.022127402463597134
2.8291316526610646,0.009047658701000924,0.021390989633596282
2.8331332533013205,-0.0038561798879543294,0.02071148100025316
2.837134853941577,-0.002524234607249327,0.020865580610970685
2.8411364545818327,0.02066387741528623,0.022612710911361616
2.845138055222089,-0.002709713147960879,0.02360789458998425
2.849139655862345,-0.01278554561464274,0.02261904455268372
2.8531412565026013,-0.01540633467575474,0.02213692134058851
2.857142857142857,-0.023059417445948874,0.018912825379725003
2.8611444577831135,-0.01153008177003289,0.019095270372045118
2.8651460584233694,0.01658618203219633,0.018765384001946363
2.8691476590636253,0.0016858138470030846,0.017506965714156178
2.8731492597038817,-0.0031360857555120603,0.01674530571005707
2.8771508603441376,-0.009882392976855864,0.01843652049786525
2.881152460984394,0.003911417692418836,0.020254344030726068
2.88515406162465,0.013562586165497532,0.022768936920204694
2.889155662264906,-0.02056827261357841,0.021244738519294176
2.893157262905162,0.016551544701738218,0.021584240279187213
2.8971588635454184,-0.03139748472094547,0.018807050227817833
2.9011604641856743,-0.007418186484023395,0.019252117791871536
2.9051620648259306,0.013663669281194826,0.01938278089960933
2.9091636654661865,0.012311670342821733,0.019391427415518303
2.913165266106443,0.0018252057248890924,0.021119289036422507
2.917166866746699,-0.013894707142884535,0.021104323770388594
2.9211684673869547,0.025533587539096108,0.02327102134099834
2.925170068027211,0.018773001873264743,0.026184396141817817
2.929171668667467,0.016154581411783393,0.024933990715812482
2.9331732693077233,-0.018700948302904048,0.02346325003792307
2.937174869947979,0.009546253057099422,0.023585594111776197
2.9411764705882355,-0.009399632800082056,0.02127502044378911
2.9451780712284914,-0.00460310585116238,0.023186109979971278
2.9491796718687477,-0.021404056657344708,0.02669204866400157
2.9531812725090036,-0.008408557257411117,0.028083718590214028
2.95718287314926,-0.023711760455494085,0.030000172564116457
2.961184473789516,0.00029859127820733663,0.030804493633678497
2.9651860744297722,0.007090196276263911,0.029079188503107162
2.969187675070028,-0.0218485648800072,0.02795968129899698
2.973189275710284,0.014676752422410995,0.023765488111657313
2.9771908763505404,0.0032274993523071656,0.025954732418645658
2.9811924769907963,-0.00441114980416651,0.025132136188444676
2.9851940776310526,0.009060610694298017,0.026916621677658622
2.9891956782713085,-0.0007942270967276027,0.02667765678345136
2.993197278911565,-0.001956716681059433,0.02561252915878588
2.9971988795518207,-0.0065733958724419304,0.025035703063765895
3.001200480192077,-0.00934766560059504,0.024394506579088666
3.005202080832333,0.0004910879949092926,0.02237099710460034
3.0092036814725893,0.030817211743783886,0.020134178113455466
3.013205282112845,0.010119069043268886,0.020058159262656788
3.0172068827531016,0.002379408082516449,0.018711132927368004
3.0212084833933575,-0.0014097135845168574,0.018296886809470024
3.0252100840336134,0.006841814492879541,0.015975405250592285
3.0292116846738697,-0.00020090363542359948,0.016122406300114567
3.0332132853141256,0.027386867996338635,0.012487614588280453
3.037214885954382,-0.02239823697354315,0.017264772911889784
3.041216486594638,0.011030752740229492,0.017738890173067175
3.045218087234894,-0.005656264397400113,0.014691332877556534
3.04921968787515,0.010419472657084863,0.012614609092299521
3.0532212885154064,0.019616511709866773,0.013180367157196591
3.0572228891556623,-0.021258510509722574,0.012521326472440182
3.0612244897959187,-0.007983669194692171,0.015389982764090017
3.0652260904361746,-0.017599132551183262,0.018771714114718348
3.069227691076431,-0.007700457316327702,0.020192096367503656
3.073229291716687,0.0033887756630258032,0.02004853541379731
3.0772308923569427,0.007381204464481934,0.020216308134945994
3.081232492997199,-0.004970357053654502,0.023210060005071306
3.085234093637455,0.0025947646996294254,0.021713811863229612
3.0892356942777113,0.038974243540487945,0.021379552220911615
3.093237294917967,-5.095128834615217e-05,0.02376193492102554
3.0972388955582235,0.009107317883538793,0.024746641251837915
3.1012404961984794,-0.0035379545639744546,0.02420612818354938
3.1052420968387358,-0.01826043977505947,0.025330079179638646
3.1092436974789917,0.011348050452296258,0.02182116494293807
3.113245298119248,0.013399721797935613,0.01872127638420055
3.117246898759504,0.0036589300530401377,0.023095343023868148
3.1212484993997602,-0.020617699265976692,0.022217928915142057
3.125250100040016,-0.013391501246467388,0.022012533946343265
3.129251700680272,0.012935186502293632,0.01949571595361108
3.1332533013205284,-0.002620944467603032,0.01902642021394879
3.1372549019607843,0.032149568956887226,0.019553055483937064
3.1412565026010406,-0.016608839246137746,0.018895710894696553
3.1452581032412965,0.01187207977158153,0.018263080215086196
3.149259703881553,-0.00995000453640247,0.02095996803442594
3.1532613045218087,-0.010790094999299761,0.021900775281326567
3.157262905162065,0.0007429555826348855,0.023147530564371317
3.161264505802321,0.00723871028336693,0.023151628550930912
3.1652661064425773,-0.0006310548053588884,0.0220833446476743
3.1692677070828332,-0.017219372196187507,0.02467519352787435
3.1732693077230896,0.001121557120355977,0.025107968832418632
3.1772709083633455,0.0018047964282237063,0.026111663541743196
3.1812725090036014,-0.01016450371749019,0.024942311219084797
3.1852741096438577,-0.013931771724958906,0.02328226838436971
3.1892757102841136,-0.007610886846960374,0.022317869371908692
3.19327731092437,0.004563972224529925,0.021843908255002164
3.197278911564626,-0.0006561967714259155,0.021311959359536795
3.201280512204882,-0.008051638690269492,0.01939131337953944
3.205282112845138,0.01792894523346476,0.017649044732523215
3.2092837134853944,0.01321047804672885,0.018829857505528017
3.2132853141256503,-0.008410126064404186,0.01597817874821007
3.2172869147659067,-0.0007975344813710095,0.014569706066830019
3.2212885154061626,-0.001637874289694149,0.01342574915574982
3.225290116046419,0.007548639171379884,0.011970965471390253
3.229291716686675,-0.032453126079666286,0.011542307846931757
3.2332933173269307,0.004247984758237045,0.014232475104083195
3.237294917967187,-0.005085616771271766,0.015167251304389642
3.241296518607443,0.0013362026890311567,0.01638492937922317
3.2452981192476993,0.006771345936817115,0.013814376794227246
3.249299719887955,0.022161552206987956,0.013895197251557826
3.2533013205282115,0.009412288401826596,0.01479429576097183
3.2573029211684674,0.002415809168614447,0.018283191268531042
3.2613045218087238,0.002274955108563955,0.016767363134545923
3.2653061224489797,-0.003216818623828966,0.016372076100682628
3.269307723089236,-0.017518079361335002,0.015866825015673956
3.273309323729492,0.008984358203059598,0.016824045076407435
3.2773109243697482,-0.004369437061425594,0.019032706207661027
3.281312525010004,0.013992597842691199,0.01769957196201334
3.28531412565026,-0.0277014186519241,0.016009854619125685
3.2893157262905164,0.0015540993739964692,0.015049500495926797
3.2933173269307723,0.01978152371153592,0.01542819727848141
3.2973189275710286,-0.00705654777464321,0.017913966709776016
3.3013205282112845,0.005736914531490627,0.018138703510388914
3.305322128851541,-0.0030510811931683725,0.013742691282297857
3.3093237294917968,-4.100011210480755e-05,0.015268040685271704
3.313325330132053,0.023769918865777045,0.018808150446167373
3.317326930772309,-0.016395991820158336,0.01884225837589647
3.3213285314125653,-0.009500617957465696,0.02087877503687199
3.3253301320528212,0.015258013509050912,0.01851434975973591
3.3293317326930776,0.004486384291500665,0.017939034014489298
3.3333333333333335,0.022975856147948996,0.018038474781914452
3.3373349339735894,-0.026778612566619505,0.017688788048271273
3.3413365346138457,-0.027828218320550494,0.020906017805020837
3.3453381352541016,-0.010917391224233824,0.020730374550005537
3.349339735894358,-0.012580528105911652,0.02081118602002881
3.353341336534614,0.015935642936545254,0.022515602956819966
3.35734293717487,-0.011192982930696968,0.021027570847265704
3.361344537815126,0.001763266509588819,0.020287866368320993
3.3653461384553824,-0.01610596358324509,0.024236324434866043
3.3693477390956383,0.007873190693860442,0.02549589428247285
3.3733493397358947,0.008052013307246291,0.02610024205901039
3.3773509403761506,0.013889920113693239,0.0271714905313156
3.3813525410164065,-0.019939409678234217,0.02918834419112825
3.385354141656663,0.005833279760084134,0.03093399280610012
3.3893557422969187,0.009856006170297454,0.027489234790359463
3.393357342937175,0.007762914615799863,0.027443835922883957
3.397358943577431,0.005273678900892069,0.027189090538597343
3.4013605442176873,-0.0025006516010105937,0.02606111675345164
3.405362144857943,0.006065719717341821,0.0275330764534327
3.4093637454981995,0.00198402299197467,0.027057773661048824
3.4133653461384554,-0.00010476036251097695,0.023779146729979984
3.417366946778712,-0.004391013033717416,0.02096591003849534
3.4213685474189677,0.016904151470576792,0.020472131684273566
3.425370148059224,0.013676023264464711,0.019328371744715037
3.42937174869948,0.02795020171014327,0.017225357922102655
3.433373349339736,0.005750500506776101,0.016422774195729996
3.437374949979992,-0.017961705593321955,0.016457329776920496
3.441376550620248,-0.004976586451382698,0.013952620193474055
3.4453781512605044,0.002541167634699019,0.013407545948974628
3.4493797519007603,0.0033229809755199783,0.014793193952179522
3.4533813525410166,0.00031504881099934473,0.014759712127047929
3.4573829531812725,0.005682323038493123,0.01601366205172106
3.461384553821529,-0.0028308371193107055,0.016000704401836176
3.4653861544617848,0.015408103421837734,0.017269510425065616
3.469387755102041,-0.01277357106027327,0.016833359295693094
3.473389355742297,-0.009863916557883256,0.016405632264113335
3.4773909563825534,-0.017307314016970287,0.016534353600669717
3.4813925570228093,0.004908463157477806,0.015634186261272484
3.485394157663065,-0.018389930158065955,0.01621309069996945
3.4893957583033215,0.004450532314157642,0.01663981052120885
3.4933973589435774,0.0008316961282239138,0.018364344076352
3.4973989595838337,-0.004010639094719283,0.017717773678103614
3.5014005602240896,-0.012828742080160497,0.017121054789568872
3.505402160864346,0.0032913411915179327,0.015455096146778034
3.509403761504602,-0.0031254712384280415,0.015323289870130383
3.513405362144858,0.01801933932672572,0.015390320965004029
3.517406962785114,0.0037353421032056623,0.01530797635499296
3.5214085634253705,-2.515392038361948e-05,0.015040388373899847
3.5254101640656264,0.013807568477711564,0.015148029271745668
3.5294117647058827,-0.007852103470674795,0.017106829933371114
3.5334133653461386,0.019775638841756205,0.016732563382077948
3.5374149659863945,0.008128597326494262,0.01677868322016658
3.541416566626651,-0.02230770912695926,0.017187426706852468
3.5454181672669067,0.0068168666665674015,0.01577264943205252
3.549419767907163,0.01876243895297957,0.014232562556868795
3.553421368547419,0.0012256743966443018,0.01368473836696996
3.5574229691876753,-0.008222621347581966,0.014145513972465051
3.561424569827931,-0.010975613097604859,0.014362422524404854
3.5654261704681876,0.0016915813571123488,0.014938159521045283
3.5694277711084434,0.015059586548290453,0.018299855190434137
3.5734293717487,0.004147870933898455,0.018739121225342804
3.5774309723889557,-0.003309379225622808,0.01966793809102438
3.581432573029212,0.0031554034729282614,0.019344593943340354
3.585434173669468,0.03656033264918687,0.020142463987895494
3.589435774309724,0.0006855612124332121,0.01903989136595721
3.59343737494998,-0.0015835722589272324,0.018719976228551892
3.597438975590236,0.0016056265895487477,0.021073354719239577
3.6014405762304924,0.004897173461030522,0.019561297364713157
3.6054421768707483,-0.007998504353380226,0.018850213029705618
3.6094437775110046,-0.023790140549158536,0.016248604748554805
3.6134453781512605,-0.015611282701839771,0.0206990975617755
3.617446978791517,0.018002978045573534,0.017314527017353323
3.621448579431773,0.0047850184911018565,0.01649534595484247
3.625450180072029,-0.0079578487948378,0.013809745893692436
3.629451780712285,0.01509741323978009,0.014384455105576371
3.6334533813525414,0.011839780180412898,0.01434937349480957
3.6374549819927973,0.007883158626487521,0.016355264506408854
3.641456582633053,0.02258269309660325,0.018534151236106397
3.6454581832733095,-0.0027459757525682502,0.018994887893805164
3.6494597839135654,0.0003289523424442052,0.019094622243190147
3.6534613845538217,-0.01195431739064426,0.019822259166348843
3.6574629851940776,0.010940741218651247,0.02169157273583631
3.661464585834334,0.009986514146547746,0.017822000940360534
3.66546618647459,-0.003108610734182811,0.01894865941548139
3.6694677871148462,0.002957919604372312,0.02223570592570401
3.673469387755102,0.020467074863420014,0.02241420771945593
3.6774709883953585,-0.002945123709481966,0.021699132293115552
3.6814725890356144,0.0031581481919504256,0.022318345903996936
3.6854741896758707,0.0005954734182190569,0.020306996307302327
3.6894757903161266,-0.027992466225815953,0.01942653678742994
3.6934773909563825,-0.009046243990290557,0.017095083081756654
3.697478991596639,0.00950639078433817,0.016809082583646242
3.7014805922368947,-0.0011783567174195957,0.018767183982850804
3.705482192877151,0.010630606361379847,0.016864954779992322
3.709483793517407,-0.001203194054667888,0.015505996547821357
3.7134853941576633,-0.00644194137076825,0.014365236398069726
3.717486994797919,-0.012145995026091979,0.015212042129744478
3.7214885954381756,-0.021028536521611543,0.016198239356016712
3.7254901960784315,-0.014239764917639895,0.01763480745029075
3.729491796718688,0.012219340166284046,0.015948018550935122
3.7334933973589437,-0.020261401684062808,0.015899472342349886
3.7374949979992,0.007984329094763574,0.014524596609248618
3.741496598639456,-0.010638915262277305,0.015046371445495477
3.745498199279712,0.02034869752764199,0.01648460457363858
3.749499799919968,-0.00033444687238658334,0.01657249161416987
3.753501400560224,0.00825973491629363,0.01834047091456428
3.7575030012004804,0.016190063088760875,0.01975884264964435
3.7615046018407363,-0.011856285887791038,0.022837201090277252
3.7655062024809927,-0.02612044416347464,0.019705275813925543
3.7695078031212486,-0.00047077784926000685,0.0199545807532601
3.773509403761505,0.030894137475499003,0.021651754973973057
3.777511004401761,-0.017619969632929562,0.021519655590741676
3.781512605042017,0.02581370430844749,0.021148536972491007
3.785514205682273,-0.009026797327406095,0.023494470211243245
3.7895158063225294,0.0052025806961659895,0.024341991514034718
3.7935174069627853,-0.013876320022232326,0.02652944805682972
3.797519007603041,-0.005616602525524814,0.023311489103961934
3.8015206082432975,0.011692063268282182,0.025918440967300834
3.8055222088835534,-0.011448995288456441,0.026763815417906033
3.8095238095238098,-0.025298495424177097,0.027632931658831638
3.8135254101640657,0.0031333806985698056,0.027796111898262314
3.817527010804322,0.019135090827974075,0.026945148436407378
3.821528611444578,-0.0022360320121836363,0.02593201050285021
3.8255302120848342,0.00928351604217085,0.026758839942059357
3.82953181272509,0.004291353621062696,0.027296111145866133
3.8335334133653465,-0.0050782826444693,0.026553979582921886
3.8375350140056024,-0.000170370148759693,0.028658123289118546
3.8415366146458583,0.009471028585306612,0.025059898995508378
3.8455382152861146,-0.008436106851024494,0.027981472013570718
3.8495398159263705,0.009853249401619324,0.02349554489876643
3.853541416566627,0.014965123526447924,0.022190618330889745
3.8575430172068828,-0.005654677170781783,0.018821669303660613
3.861544617847139,0.006906258191091789,0.01820359812299367
3.865546218487395,-0.02373104079934335,0.017415893235421434
3.8695478191276513,-0.012771315333239736,0.016726321612104713
3.8735494197679072,0.00269906360272546,0.01716766589148345
3.8775510204081636,0.010195354949767572,0.016879831617368574
3.8815526210484195,-0.00037661928417772277,0.017430220233326663
3.885554221688676,-0.0035229434400258822,0.01435532272993116
3.8895558223289317,0.0052710957983589735,0.014945900968475374
3.8935574229691876,0.02901064878846112,0.015665316863613346
3.897559023609444,-0.0016701629309619295,0.017314431916685094
3.9015606242497,-0.00895641571666923,0.01628375060482875
3.905562224889956,-0.009266621895484169,0.017207919150449485
3.909563825530212,0.008673200569844736,0.016471955666065897
3.9135654261704684,0.02343157039011305,0.016996742604648115
3.9175670268107243,0.013334863381021526,0.016339316300127
3.9215686274509807,-0.002444748965578699,0.01955990238073763
3.9255702280912366,0.008348112526238571,0.018278982763476104
3.929571828731493,-0.0021317712889858766,0.0173384242424906
3.933573429371749,0.005799460907988966,0.017903811260081757
3.937575030012005,-0.008266481845223042,0.018180395304944426
3.941576630652261,-0.014962392566080392,0.01813351842989882
3.945578231292517,-0.005401076235055257,0.018221732058370365
3.9495798319327733,0.028712367135258467,0.01818192353271857
3.953581432573029,-0.010193754074918258,0.01789276991487272
3.9575830332132855,-0.005939717143889855,0.01816750838211197
3.9615846338535414,-0.006288773624645532,0.018523857529124978
3.9655862344937978,0.0023205494230062536,0.018992733027686264
3.9695878351340537,0.00738658516442221,0.016793723271637813
3.97358943577431,0.021668028495511468,0.017377732747604065
3.977591036414566,0.015752439993212738,0.020470182744372033
3.9815926370548222,-0.006848949889530241,0.020615309134113843
3.985594237695078,-0.00030726559137779085,0.02018742992786081
3.9895958383353345,0.00863559415454281,0.017504023764385358
3.9935974389755904,0.0048115580524396824,0.015779924811002828
3.9975990396158463,0.0010450017275273015,0.016553483168853498
4.001600640256102,0.02708383677644834,0.018638483947776705
4.0056022408963585,0.006855795699356606,0.02077056232749626
4.009603841536615,-0.0027215509561284226,0.020934841542848123
4.013605442176871,0.0007061503714072253,0.01968896490765254
4.017607042817127,0.02146987963501294,0.018698614844891145
4.021608643457383,0.0015807405857907234,0.01860633604427571
4.025610244097639,0.03654391914004592,0.014275492024017114
4.029611844737896,-0.013565264896318027,0.016919340203690725
4.033613445378151,-0.0065187582845049625,0.017062736341182067
4.0376150460184075,0.004864289267335596,0.016504349782317258
4.041616646658664,-0.026095337094191814,0.01625164373763636
4.04561824729892,0.002911568370330772,0.018456138120988654
4.049619847939176,-0.008618294242783759,0.015311823169239843
4.053621448579432,0.0036264504756058917,0.018566366990395742
4.057623049219688,0.01391514309213286,0.019617689089795633
4.061624649859944,0.0016905122455618906,0.020589990051252297
4.0656262505002,0.006333926898533184,0.019999657976671407
4.069627851140456,-0.0007464026614492415,0.023331262769288215
4.073629451780713,-0.0031502854207728407,0.023623441256985515
4.077631052420968,-0.008749139077363514,0.020732982289020128
4.081632653061225,0.004250817171277927,0.020227484557468013
4.085634253701481,0.005010346955148123,0.021979646386142974
4.089635854341737,-0.003672059292152115,0.02213373108750966
4.093637454981993,-0.022153431652839353,0.01976446139255768
4.097639055622249,-0.00658983734854878,0.01963386032674389
4.101640656262505,-0.007186713310457042,0.014406668768150192
4.105642256902761,-0.027230093084168742,0.013652788180083652
4.109643857543017,0.0012789236789520055,0.013297781511983141
4.1136454581832735,-0.0009925507382377108,0.013320644298321983
4.11764705882353,-1.378940651534972e-05,0.009810670827684815
4.121648659463785,-0.0024266932599098043,0.01282264928344337
4.125650260104042,-0.03471708028323751,0.01250512969741531
4.129651860744298,-0.0023289745505792113,0.013062426815577325
4.133653461384554,-0.0076174308144404046,0.015146650257283754
4.13765506202481,-0.00844567544927087,0.01508222323807754
4.141656662665066,-0.015250241758126956,0.014246123860241466
4.1456582633053225,0.015385737834855234,0.014131446019126673
4.149659863945578,-0.0017156788919005174,0.014018180273118777
4.153661464585834,0.018079333701201298,0.018083009042773164
4.157663065226091,0.016860404514937814,0.01778217806378138
4.161664665866347,0.0013796380258548342,0.018190271620068227
4.165666266506602,-0.002196817243064212,0.018937498061198422
4.169667867146859,-0.011308017175724995,0.017856923953919288
4.173669467787115,0.006352590087682904,0.019233768928586272
4.1776710684273715,-0.015747448566860927,0.018377373809388784
4.181672669067627,0.027125762158290993,0.016944981856974125
4.185674269707883,0.01029232999830287,0.01938399121369613
4.18967587034814,0.0183566108944137,0.01944458298454925
4.193677470988396,0.014543997648934364,0.019786297958586274
4.197679071628651,-0.01240171634773683,0.021176514482854247
4.201680672268908,-0.003280196423463384,0.016736547722709633
4.205682272909164,-0.005089232352387702,0.018836976046765753
4.2096838735494195,0.0051057129375584615,0.021890665434990988
4.213685474189676,0.002270464807024211,0.022179727031326566
4.217687074829932,-0.00694263323082134,0.022665974998935513
4.221688675470189,-0.005370044987062712,0.022534215238037274
4.225690276110444,-0.02569161090354034,0.02420692822439687
4.2296918767507,-0.00734128199092694,0.02189038112134788
4.233693477390957,0.0017753410593367544,0.02004780920239787
4.237695078031213,0.0005675403778352027,0.020631061312332336
4.2416966786714685,0.0029510429830913987,0.020642589555346532
4.245698279311725,0.002510491906304436,0.019959264754618084
4.249699879951981,0.01320718593665617,0.01980546443749551
4.253701480592237,0.0020136524786660537,0.02136204979926091
4.257703081232493,-0.006673706177941722,0.018265134123914003
4.261704681872749,-0.004113917316297697,0.01693194789265026
4.265706282513006,-0.0002912832672971674,0.014147378833134583
4.269707883153261,-0.009621228314492861,0.012332703758302001
4.2737094837935174,0.009567098348141248,0.01078440490172771
4.277711084433774,0.004594850557866851,0.01233830215716958
4.28171268507403,0.017555678517296107,0.011856873712189665
4.285714285714286,0.01361119312257099,0.01210231573562939
4.289715886354542,0.01849657882278754,0.012390876108428272
4.293717486994798,0.0029628564894625467,0.011349723154698654
4.297719087635055,-0.008129737076159793,0.012015171838420425
4.30172068827531,-0.010115808591192228,0.009491160326987491
4.305722288915566,0.001439410876224126,0.009061254335808627
4.309723889555823,-0.0008453279064369185,0.011531391232123623
4.313725490196078,0.0015819107359931908,0.013573147816438062
4.3177270908363345,0.013938592295371258,0.01600653061024216
4.321728691476591,0.0008773905189665394,0.01607734040441937
4.325730292116847,0.016718691161678477,0.015282554247096816
4.329731892757103,0.01366586362967971,0.016550805626801026
4.333733493397359,-0.00707550132044414,0.01573146789176042
4.337735094037615,0.011490632484472338,0.01521982716660411
4.341736694677872,0.0030200647250150153,0.015421852410887825
4.345738295318127,0.032726388915171156,0.016097660522875326
4.3497398959583835,-0.0019226018982421704,0.014737438158542091
4.35374149659864,-0.012795257934188255,0.016635214177610172
4.357743097238895,-0.00026423350391388415,0.0160263314272042
4.361744697879152,0.00510250299611227,0.01500328274358849
4.365746298519408,-0.007160937904941399,0.013906623905336165
4.369747899159664,-0.006215648355065951,0.013915578857902148
4.37374949979992,0.019070630772119353,0.017765756168445734
4.377751100440176,0.017286887876293452,0.01648325240670374
4.3817527010804325,0.0016639216824437613,0.018260812416527175
4.385754301720689,0.013020654782870109,0.01816985221192203
4.389755902360944,-0.007443020377067387,0.018720939592769822
4.393757503001201,-0.005988141294534742,0.01766001588154539
4.397759103641457,0.0022578642776994486,0.01849562714005754
4.401760704281713,-0.021421006179110795,0.018863782309434127
4.405762304921969,0.017333885148247116,0.019430590567992654
4.409763905562225,-0.013586825018444658,0.01858350205884107
4.413765506202481,-0.0016121870502756174,0.018823000392861215
4.417767106842737,0.0017376988122332184,0.019515337041301456
4.421768707482993,-0.006840399046587402,0.015329930223069721
4.42577030812325,0.009767355246352452,0.01538240970746922
4.429771908763506,4.211705611958571e-05,0.01673262031322282
4.433773509403761,-0.015489912636095058,0.01940457688235464
4.437775110044018,0.01316161811946186,0.020732649676958315
4.441776710684274,-0.015712995312263535,0.01986408940370154
4.44577831132453,0.007599615346685555,0.019163144419789998
4.449779911964786,-0.025401781921858352,0.017248714724214565
4.453781512605042,0.01562381735746834,0.01607166289995885
4.4577831132452985,-0.0036254037390457765,0.015817797641578264
4.461784713885554,0.00844602812903259,0.016204316937887105
4.46578631452581,-0.015276572415922517,0.01709946378226257
4.469787915166067,-0.0017784766519221666,0.018621720247592646
4.473789515806323,-0.013220165823356559,0.019457878310852404
4.4777911164465785,-0.008318295536467164,0.020080999398364816
4.481792717086835,-0.006212621197990801,0.01981331807935272
4.485794317727091,0.00982891696250663,0.018254031130798293
4.4897959183673475,-0.006124711238297323,0.01932374988916847
4.493797519007603,0.011129402069443168,0.021443024670972966
4.497799119647859,0.00795507466283043,0.020650668911366625
4.501800720288116,-0.001995270796788564,0.021191146250648288
4.505802320928372,0.0015529267950771144,0.02248663780013245
4.509803921568627,-0.031782678720190714,0.021034439458989244
4.513805522208884,-0.009823596878859708,0.020512763156811397
4.51780712284914,0.0014103286313861248,0.019011884336789246
4.5218087234893956,0.011164127794792873,0.01956441095057269
4.525810324129652,0.01774692694851858,0.016833432894207065
4.529811924769908,-0.01733111053344561,0.014700121373311658
4.533813525410165,-0.028810247141982007,0.014375711215436548
4.53781512605042,0.013414315848247982,0.018028657282984414
4.541816726690676,0.013634190857882273,0.01717508896705413
4.545818327330933,0.041602478587832746,0.01711746180849341
4.549819927971189,-0.000451313260986091,0.016795624876418155
4.5538215286114445,-0.00823649466179891,0.018271512853764018
4.557823129251701,0.011010119573373837,0.020011918647490516
4.561824729891957,-0.009835864774184909,0.022983115185103892
4.565826330532213,0.01191010649792794,0.02412417578374812
4.569827931172469,-0.007288492267599639,0.024516256828927472
4.573829531812725,-0.006389437664471801,0.029783171691919904
4.577831132452982,-0.012879262193879196,0.02954149203927055
4.581832733093237,0.022000889733636862,0.03058768814442974
4.5858343337334935,0.005583409399797514,0.027336105919642938
4.58983593437375,0.001381251419900978,0.027338026244918847
4.593837535014006,-0.0027028438321285643,0.028981583537679715
4.597839135654262,0.0018132865487748907,0.028374920319108266
4.601840736294518,-0.019447505800870107,0.02659710324740325
4.605842336934774,-0.03293977461761724,0.02590024395211517
4.609843937575031,0.003510858300613449,0.024834357685781527
4.613845538215286,0.0017740860905039835,0.023608565715144546
4.617847138855542,-0.027428341089455553,0.02169058152281
4.621848739495799,-0.0004300048031941951,0.015601521430196
4.625850340136054,0.006503708781090647,0.015814714619437068
4.629851940776311,-0.01896579508906941,0.017569603089559762
4.633853541416567,0.014494066912295161,0.021002308517600137
4.637855142056823,0.01157461180788553,0.020012238951507322
4.641856742697079,-0.004845381136151591,0.018425621551411656
4.645858343337335,0.0047174550203676205,0.02157816399821341
4.649859943977591,0.0035830837827660563,0.020645318611923577
4.653861544617848,0.020997678560800027,0.019647336803149732
4.657863145258103,-0.02018331900983579,0.01917224561544052
4.6618647458983595,0.005371251594338144,0.02056705380320491
4.665866346538616,0.01787330721036622,0.02216264677825226
4.669867947178871,-0.0013143550060819953,0.02249802366486815
4.673869547819128,0.02922474564371034,0.02295262064125775
4.677871148459384,-0.010100920814927836,0.020469321772014278
4.68187274909964,0.021928931987216214,0.018599994695336117
4.685874349739896,0.0017431461435138587,0.021209777943630343
4.689875950380152,0.004488471247252218,0.02177285153168537
4.6938775510204085,-0.0030484439007580286,0.020277177450370096
4.697879151660665,0.004069524879855869,0.020415607067052026
4.70188075230092,0.01721759021042043,0.02397218953091955
4.705882352941177,-0.03387341139393768,0.02258454791146191
4.709883953581433,0.0023034701448923565,0.023748346505098654
4.713885554221688,0.018240969685624123,0.02220940184392669
4.717887154861945,-0.016645146099699668,0.02215353381907749
4.721888755502201,0.008706019182331135,0.0218922792066276
4.7258903561424574,-0.008454252810203084,0.021968423085363186
4.729891956782713,-0.013110563743096881,0.021376716112652436
4.733893557422969,-0.008493547147486973,0.02351966155992325
4.737895158063226,-0.008943923333190686,0.023039453822395767
4.741896758703482,-0.0272751523541895,0.0230970049773026
4.745898359343737,-0.005916630739658815,0.02549677322249572
4.749899959983994,0.028900042136882645,0.02228492408221745
4.75390156062425,0.0030227991206479825,0.022027166895130148
4.757903161264506,0.009248277736947237,0.020646804984421778
4.761904761904762,-0.011029540284002177,0.021703462652818188
4.765906362545018,0.024062864654242927,0.02240088605181459
4.7699079631852745,-0.002384383799335261,0.026193155170679567
4.77390956382553,0.017418913638018844,0.02648228741185338
4.777911164465786,0.013700307020320606,0.028310971723571023
4.781912765106043,-0.010191717084366385,0.02348184586658724
4.785914365746299,0.00967798369264171,0.024568934499301538
4.7899159663865545,-0.010787542565555197,0.023440110867514602
4.793917567026811,0.0061919561989693525,0.024601225472121235
4.797919167667067,-0.007343877884329532,0.023611683591525236
4.8019207683073235,0.009131156607583759,0.025014945057430606
4.805922368947579,-0.009388203133797764,0.025107259092685245
4.809923969587835,-0.004187206836423086,0.0253730780099596
4.813925570228092,0.0004241283353924339,0.025487982370074387
4.817927170868347,-0.01554146493639285,0.022907134312835403
4.821928771508603,0.004045759475618756,0.022950231716636158
4.82593037214886,-0.021541573431186,0.019575989764896336
4.829931972789116,0.0025001565396369236,0.020532146706695547
4.833933573429372,-0.005984687501385082,0.020554049589724052
4.837935174069628,-0.006916302510402699,0.019483001498972963
4.841936774709884,0.01543448249208663,0.0157827691738396
4.845938375350141,-0.006282226990730655,0.017842280996767296
4.849939975990396,-0.02195537563318327,0.015748946706251765
4.853941576630652,-0.01522603138273108,0.016976360348508485
4.857943177270909,0.0008673607392491249,0.015772380551346797
4.861944777911165,0.0009470958053022961,0.015194259379011464
4.8659463785514205,-0.021976583515522705,0.014588284195007933
4.869947979191677,-0.009123517251021125,0.016035040658398725
4.873949579831933,0.008504017738893128,0.015868857707605006
4.877951180472189,-0.018493854470566208,0.017876265766269835
4.881952781112445,0.01446425743028305,0.01879007606915197
4.885954381752701,-0.006821155986175168,0.018270412002615765
4.889955982392958,-0.01655416453723181,0.018352273448636065
4.893957583033213,0.014980671712615998,0.019359579146427296
4.8979591836734695,0.02325541384585528,0.020154413658996312
4.901960784313726,-0.02270072819027105,0.018113611462015997
4.905962384953982,0.029319916320589973,0.020617146223104316
4.909963985594238,0.018656562378200243,0.02194447516027412
4.913965586234494,-0.018249817879733052,0.021929581629595407
4.91796718687475,-0.006161742576572024,0.0221048483461167
4.921968787515006,0.011056710370529767,0.023466438318785383
4.925970388155262,0.012871801082040302,0.02366993665107997
4.9299719887955185,-0.016735836753370387,0.024839970208490346
4.933973589435775,-0.012465711934131363,0.02929372207046173
4.93797519007603,-0.009017124944854982,0.03206583051949291
4.941976790716287,-0.02327796391976693,0.0314824702887369
4.945978391356543,-0.010951947931523107,0.031018856064933466
4.949979991996799,-0.0007072013146444164,0.031418435622161296
4.953981592637055,-0.0055965447530908225,0.030538401114341182
4.957983193277311,-0.004395558871940894,0.030893977280808657
4.961984793917567,-0.023712380902321795,0.03177753417225703
4.965986394557824,0.006855494445646038,0.030597741938046815
4.969987995198079,-0.014371747358399235,0.031896538473608405
4.9739895958383356,0.008919102011912813,0.029970645241698023
4.977991196478592,0.008181282257423449,0.026527941791260775
4.981992797118847,0.0015688666683814404,0.022814461292508005
4.985994397759104,-0.014537570468484586,0.020582149655755205
4.98999599839936,0.012056347315873362,0.02143721872550673
4.993997599039616,0.008563920700545812,0.021545813493727157
4.997999199679872,0.012243388807973819,0.02206472477798839
5.002000800320128,0.008633473333351892,0.021445998604409176
5.0060024009603845,-0.012696294936588269,0.02010693213968552
5.010004001600641,-0.011043724856973572,0.01840122086348034
5.014005602240896,0.0016602936406603045,0.019265350430312675
5.018007202881153,0.02548629976975187,0.017508801859445606
5.022008803521409,-0.006062777496398329,0.017134997801810152
5.0260104041616644,0.009778613697216323,0.01894078696481108
5.030012004801921,-0.0023605434126952245,0.01941616522320141
5.034013605442177,0.007881281263723705,0.020715500834653507
5.0380152060824335,0.031067639962182023,0.018732443450252968
5.042016806722689,0.007203524201732889,0.01791922527755236
5.046018407362945,-0.016044504970586997,0.019659014814401674
5.050020008003202,-0.013746075096748162,0.019211906975775406
5.054021608643458,-0.005608840597503407,0.0194619413831883
5.058023209283713,-0.011367348316983958,0.019585864584532618
5.06202480992397,0.006883249089068134,0.01854393847864126
5.066026410564226,-0.01409257113150472,0.021519825118416692
5.070028011204482,0.008310936442350226,0.021306878748018218
5.074029611844738,0.0034648656214152054,0.021901877258377344
5.078031212484994,-0.010260132785655886,0.022702165990197868
5.082032813125251,0.0073978745477954,0.02159274849449716
5.086034413765506,0.006956836291582899,0.021643406108836177
5.090036014405762,0.015112626771163795,0.02246096878740959
5.094037615046019,-0.008339117440413294,0.0206774790761842
5.098039215686275,-0.007745937213753076,0.021029389190652344
5.1020408163265305,0.0035597038289626307,0.02004108193058118
5.106042416966787,-0.026730013874577015,0.021277625016422854
5.110044017607043,0.02555893829308669,0.021201956117191636
5.1140456182472995,0.0032876577358978854,0.01742782987272945
5.118047218887555,0.011989158458770709,0.018665862083735
5.122048819527811,0.0076818407993820845,0.01745971791290249
5.126050420168068,0.0029154831703635227,0.016520500864645515
5.130052020808323,-0.011365583545477198,0.01619974420458973
5.1340536214485795,0.007398413874570298,0.018604501841785748
5.138055222088836,0.00589061267301795,0.02152785560971737
5.142056822729092,0.0023965491065004274,0.019836534666101246
5.146058423369348,-4.671423937818048e-05,0.020412296238995604
5.150060024009604,-0.010347048086368788,0.021072390232909948
5.15406162464986,0.0032774814586780843,0.01992271329770038
5.158063225290117,0.012925238746306984,0.02054378901392795
5.162064825930372,0.012106668569574368,0.020612910291164806
5.166066426570628,0.0016811697171893124,0.01916936465452334
5.170068027210885,-0.006897060060836892,0.018239159116170453
5.17406962785114,-0.009355820388674493,0.017033979899146352
5.178071228491397,-0.014741856901168,0.018096420390224337
5.182072829131653,0.002537155672674068,0.014425335041962913
5.186074429771909,-0.005993901123060014,0.012447749488384128
5.190076030412165,-0.014992000775162013,0.013828211985292162
5.194077631052421,0.011945147947835447,0.012214675938600263
5.198079231692677,-0.010830674862801155,0.012091832186813442
5.202080832332934,-0.00327818246908109,0.0130999547716468
5.206082432973189,0.012841409579555924,0.013628451542400622
5.2100840336134455,-0.0002003207359799061,0.012867506266102925
5.214085634253702,-0.01565388890835631,0.012883674273415305
5.218087234893958,-0.0005055792941247132,0.01485527278804787
5.222088835534214,0.0038366798124895153,0.01671776528479699
5.22609043617447,0.01786055949459424,0.016793468630666122
5.230092036814726,-0.017250124049898726,0.016793578361631367
5.234093637454982,0.00881642407841919,0.01678045636608908
5.238095238095238,-0.004246486230364153,0.014916725050933473
5.2420968387354945,-0.0017970283279434404,0.017103910800788377
5.246098439375751,0.0051610354433957424,0.016103435842251906
5.250100040016006,0.01908951878440556,0.015239510542206595
5.254101640656263,-0.014615778771973452,0.01572768909765123
5.258103241296519,0.010992448744445495,0.01803074796060144
5.262104841936775,-0.003699370513117025,0.018472564753892647
5.266106442577031,-0.007453941272537401,0.016790541665494953
5.270108043217287,-0.004431457144570716,0.015202030344485789
5.274109643857543,-0.0031789378945972415,0.014314547072598502
5.278111244497799,-0.0051714394526184175,0.01678953629995681
5.282112845138055,-0.02060849747761766,0.0170672828831051
5.286114445778312,0.0006558138812861921,0.0187566024971175
5.290116046418568,-0.012111641588979307,0.0168853309197874
5.294117647058823,0.014671659750717292,0.01797297592975976
5.29811924769908,0.0011355805091919527,0.018066077958596577
5.302120848339336,-0.006716340144646067,0.015767925887482534
5.306122448979592,0.001374101743971017,0.013877218254506982
5.310124049619848,-0.00024017965379148848,0.015723061897902773
5.314125650260104,-0.025599338782009713,0.015161004700097925
5.3181272509003605,-0.015685897991175226,0.016775577699894812
5.322128851540617,-0.0028458562453462675,0.01826430023647504
5.326130452180872,0.020697413526790432,0.015453924001751466
5.330132052821129,0.022179240955062067,0.014217404512512322
5.334133653461385,-0.004331485336137846,0.012711819865116254
5.3381352541016405,0.00023609438895494497,0.012170343803797565
5.342136854741897,-0.018190948036838617,0.015010689645948266
5.346138455382153,0.016763305910512383,0.016772376280131777
5.3501400560224095,-0.0057303309079165254,0.016720238151052336
5.354141656662665,-0.0321252419080337,0.019150558891278244
5.358143257302921,-0.0038689878205168224,0.01939643141641392
5.362144857943178,-0.002691926209110875,0.019971793743331797
5.366146458583434,-0.010959586146976846,0.018112883730737946
5.370148059223689,0.01364904904674104,0.01866376699717486
5.374149659863946,-0.01861311485787391,0.02111001513490465
5.378151260504202,0.0012329223009855579,0.02095567256762802
5.382152861144458,-0.028299153095171854,0.025769227798963866
5.386154461784714,-0.02601944684082317,0.026337254494600608
5.39015606242497,-0.017500010051428302,0.022751498160417334
5.394157663065227,-0.013335960458508043,0.02201167638531603
5.398159263705482,0.0019435094462838434,0.023702727999885282
5.402160864345738,-0.03309725650026029,0.023376467356933436
5.406162464985995,0.01517194745688907,0.020097686108607942
5.410164065626251,0.02115794082468579,0.0238494069198982
5.4141656662665065,-0.005317494063359248,0.0278853415361082
5.418167266906763,-0.025657687014055807,0.02777718723235048
5.422168867547019,0.0009706834619276867,0.02724069601472172
5.4261704681872756,0.014888460738214771,0.026647935090751845
5.430172068827531,0.010014763114933154,0.02680008704025305
5.434173669467787,0.013625507279835138,0.0285693684456567
5.438175270108044,0.004417593737196257,0.031459901309820314
5.442176870748299,-0.0004692966688351932,0.03057673009340751
5.4461784713885555,0.008179166127642712,0.03245647314684848
5.450180072028812,0.022651008572565468,0.029694857886849564
5.454181672669068,-0.007059863921022083,0.03183239451575316
5.458183273309324,0.026543253461786404,0.02897029182389853
5.46218487394958,0.008520357739910035,0.027030236518880136
5.466186474589836,-0.012817209119220166,0.024982412173118855
5.470188075230093,-0.024703813211718082,0.022968360126131706
5.474189675870348,0.026238357664138436,0.023944443538949263
5.4781912765106044,-0.01688975255887731,0.022309265425490214
5.482192877150861,-0.00945983691004645,0.021039460080622407
5.486194477791116,-0.003958079145455725,0.02188243694841962
5.490196078431373,0.015302541545360144,0.022383789455132003
5.494197679071629,0.01714949828960237,0.020373836353758196
5.498199279711885,-0.006193541110192925,0.024088844325936845
5.502200880352141,0.007244798624026654,0.02586547294625545
5.506202480992397,-0.014244898398429883,0.02694163276428881
5.510204081632653,0.013926051316114626,0.026289569644237388
5.51420568227291,0.002154638978847667,0.026217640640787535
5.518207282913165,-0.010576127382143875,0.028539526694187432
5.5222088835534215,0.017282474319678217,0.029943675908644277
5.526210484193678,-0.004446958913495606,0.027367546107427282
5.530212084833934,-0.006496026676009951,0.027396494413160135
5.53421368547419,-0.01148661796143763,0.025471401195926252
5.538215286114446,0.000260808717335388,0.02631756834465354
5.542216886754702,-0.01911897118964063,0.024648528757670804
5.546218487394958,0.012077745897576436,0.02243708568047754
5.550220088035214,0.007123251971196972,0.021035198176665888
5.5542216886754705,0.0035876585767254544,0.01908749561589532
5.558223289315727,0.0005179266881401172,0.01862356276070299
5.562224889955982,0.00477674177930163,0.019802024346473244
5.566226490596239,0.0023262826644653203,0.01744750313664474
5.570228091236495,-0.01187443875504484,0.017755789806029196
5.574229691876751,0.005823821920063698,0.01867685954801106
5.578231292517007,-0.0017364933692405149,0.018657833537155586
5.582232893157263,0.001730332546948841,0.01698962831869293
5.5862344937975195,-0.018898628831939428,0.014890820011064215
5.590236094437775,-0.0032012774618435905,0.015301264520922607
5.594237695078031,0.003428948489626021,0.014009895063184638
5.598239295718288,0.00611918563414571,0.013163361316972082
5.602240896358544,0.007986689477709885,0.013378885232272106
5.606242496998799,-0.012799427811528942,0.012633863216005818
5.610244097639056,0.0019398564433243846,0.011106686713126075
5.614245698279312,0.0003747485552625893,0.014024112734883578
5.618247298919568,0.010021284792376009,0.011532475107613351
5.622248899559824,1.7382591588569297e-05,0.010178656556961489
5.62625050020008,0.015196975158588059,0.010021487465229094
5.630252100840337,-0.000421567567030029,0.010710079110718314
5.634253701480592,-0.011180911375776082,0.012632534137287809
5.638255302120848,0.011726617569818926,0.012188469163539236
5.642256902761105,-0.02319792892356444,0.011882990499321731
5.646258503401361,-0.006174801734777694,0.011592911533017256
5.6502601040416165,0.008182910894805679,0.010684014618759782
5.654261704681873,-0.0028171082560174325,0.012791018527809466
5.658263305322129,0.009843498096137401,0.01258615417214438
5.6622649059623855,0.006404384671875571,0.01137807996621617
5.666266506602641,-0.006372642741708627,0.012712573427490173
5.670268107242897,0.0074189897351650425,0.015807062889613206
5.674269707883154,-0.00399322502848658,0.015815768621196335
5.67827130852341,-0.0032642235121501115,0.01584648366537754
5.6822729091636655,0.00017971211929415277,0.01428392545579763
5.686274509803922,-0.021146002457047425,0.015521102855449397
5.690276110444178,0.01903427046957888,0.016464937338246652
5.694277711084434,-0.0036327755146394825,0.01589380599363437
5.69827931172469,0.004791099707565502,0.017052398637555
5.702280912364946,-0.010976668015111482,0.015298646751881678
5.706282513005203,-0.003770827426047348,0.0157436150139532
5.710284113645458,-0.011118128359117414,0.014021568938604996
5.714285714285714,-0.011875751776165289,0.01549600953358729
5.718287314925971,-0.0038937283846370296,0.01484426134390228
5.722288915566227,0.021884758033968364,0.014446351427559111
5.7262905162064826,-0.0035712521572460088,0.013915422479983905
5.730292116846739,0.00036728616243218877,0.015192659400444017
5.734293717486995,-0.024332253152415294,0.014242088608068889
5.738295318127251,-0.01350050791812981,0.014979943057167195
5.742296918767507,0.017937394203474195,0.015841358898664268
5.746298519407763,-0.0025648049251213527,0.015289540653060124
5.75030012004802,-0.0005962215866812622,0.018090148430062198
5.754301720688275,0.025441356643496997,0.0181382084152493
5.7583033213285315,-0.014170945372527367,0.01816756986369618
5.762304921968788,-0.017841027649451342,0.018666321897643827
5.766306522609044,0.014418736160882408,0.017800107782122106
5.7703081232493,-0.019645864462788126,0.020039246615822112
5.774309723889556,0.0006218545903942553,0.019690758955222997
5.778311324529812,0.005430054891622151,0.018065880920048044
5.782312925170069,0.014524295374276512,0.02145802471452028
5.786314525810324,0.010525821583825147,0.021935890030304037
5.7903161264505805,-0.001847349715672873,0.022869650038323985
5.794317727090837,0.001929645539459014,0.024517156633881158
5.798319327731092,-0.021597373505074045,0.024166696852407642
5.802320928371349,-0.02187439025824856,0.023705020049158573
5.806322529011605,-0.004288035262908683,0.02449750828768951
5.810324129651861,0.0031534612944687443,0.022962243376541455
5.814325730292117,0.005562820667665912,0.02249660805734087
5.818327330932373,0.013321190774369444,0.01997799192137089
5.822328931572629,0.0084820781511851,0.019878568785601767
5.826330532212886,0.005741856453312714,0.023165933226124123
5.830332132853141,-0.0011750201855322603,0.022607586783939936
5.834333733493398,-0.026652511488395703,0.02106058939115474
5.838335334133654,-0.018427775976991915,0.01876150677222012
5.842336934773909,-0.004497774391904521,0.017375267493832055
5.846338535414166,-0.0122340618844606,0.016385250019456954
5.850340136054422,-0.0034277906440681725,0.017615631073253802
5.854341736694678,-0.028085073036416712,0.01766443817537772
5.858343337334934,-0.0026855863123551923,0.015574841722156903
5.86234493797519,-0.0017978277637122112,0.01809919405966779
5.8663465386154465,0.016407324176187437,0.02069457091861175
5.870348139255703,-0.040936443619158186,0.021096566747269847
5.874349739895958,-0.004705666271757273,0.019630903445240364
5.878351340536215,0.007515303291785122,0.01674340966128745
5.882352941176471,0.023868160258428587,0.020468421321142367
5.886354541816727,0.018913463612680613,0.020395183644238413
5.890356142456983,-0.005141662325957307,0.019805839600665415
5.894357743097239,-0.006784798746158764,0.020288920016600105
5.8983593437374955,0.015965877455908658,0.025369085494841945
5.902360944377751,-0.008407499237878828,0.02520688797492969
5.906362545018007,0.0024557311953183345,0.026199348831711843
5.910364145658264,-0.00903274975824599,0.02576350715698436
5.91436574629852,0.011373437970327626,0.025839533094464774
5.918367346938775,0.012563501817415272,0.025940322532411405
5.922368947579032,-0.0009495220713410982,0.02508733532782793
5.926370548219288,0.008237489165893758,0.02704995437356364
5.9303721488595444,0.013609293217653829,0.02396977302768162
5.9343737494998,-0.003981532284113513,0.02393379321375735
5.938375350140056,0.01638672737787443,0.025066294201665236
5.942376950780313,0.010809559641223121,0.02427832701895624
5.946378551420568,-0.00863719084588158,0.019837037307110852
5.950380152060824,-0.009979383517651366,0.019249078373910232
5.954381752701081,0.029610068155784115,0.01936212399022774
5.958383353341337,0.0073989872070025,0.017756277089974914
5.9623849539815925,-0.003574293180260903,0.015418943391871278
5.966386554621849,-0.022735794814303274,0.017179162408746142
5.970388155262105,0.0013786747898735434,0.017809168605522993
5.9743897559023615,0.0022690090019026055,0.016661990400672455
5.978391356542617,-0.01518985805565647,0.01690804149853698
5.982392957182873,-0.00880749208095381,0.02115857985360778
5.98639455782313,-0.003532939975058382,0.020902842790417868
5.990396158463386,0.011154526212942288,0.019682022554033774
5.9943977591036415,-0.0009586596738914438,0.021274317796051306
5.998399359743898,0.012003361105731693,0.021341494177229785
6.002400960384154,-3.4267796398021676e-05,0.020407232593326673
6.00640256102441,-0.00019057654477576207,0.02065464248134521
6.010404161664666,-0.0002597206667537324,0.021410062407317413
6.014405762304922,-0.018400607358104618,0.019398025934354007
6.018407362945179,-0.00356071589119841,0.019452024440980938
6.022408963585434,0.020114048190821084,0.018250084165117506
6.02641056422569,-0.005080683015422718,0.018566902593807708
6.030412164865947,-0.0032195201018727737,0.013937326331551193
6.034413765506203,-0.006164507976569862,0.01280897523082262
6.038415366146459,-0.006557131436725101,0.012290136651930511
6.042416966786715,0.0057963008146178436,0.011611538585410898
6.046418567426971,0.006684701055771729,0.011953099103239986
6.050420168067227,0.014275895871973022,0.014746429083297003
6.054421768707483,-0.016516694770937916,0.0131640138577219
6.058423369347739,-0.034250395803534166,0.012289314200767452
6.062424969987996,0.009897923206135263,0.012701240322944058
6.066426570628251,-0.002589491305216437,0.01198159826877924
6.0704281712685075,0.007450032077830308,0.012738846705618749
6.074429771908764,-0.006695594795011167,0.01190630313908455
6.07843137254902,0.026444406463498098,0.014135581889731911
6.082432973189276,-0.003570751817853804,0.01669115125645057
6.086434573829532,-0.004007991139547154,0.022011799247008544
6.090436174469788,0.014335932913025661,0.020680852180924175
6.094437775110045,0.0034956287446530326,0.020528823893136684
6.0984393757503,-0.024082991630751827,0.018546492809307542
6.1024409763905565,0.005313879537761595,0.018799279112622188
6.106442577030813,0.010137660190680643,0.02243473043724756
6.110444177671068,0.00710429594657113,0.022028723100284225
6.114445778311325,-0.014333993459464086,0.021629699599125408
6.118447378951581,0.01403864533649535,0.022966430222499595
6.122448979591837,0.011637982694173857,0.022467236513765712
6.126450580232093,0.012470078719460199,0.024002366490801487
6.130452180872349,-0.029887363874033745,0.022248760946953567
6.1344537815126055,-0.01896950463949149,0.0184743322905907
6.138455382152862,0.00097492761683979,0.01803703861504131
6.142456982793117,0.010654050376927382,0.01987543580884946
6.146458583433374,-0.021855622939266697,0.020906768424462825
6.15046018407363,-0.010491885304159966,0.021680413141386464
6.154461784713885,0.004165701330345522,0.019492975600604614
6.158463385354142,0.008059764435574726,0.023612382717160943
6.162464985994398,0.004481976463545191,0.02595434698879868
6.166466586634654,0.011480817086580936,0.023862914391625523
6.17046818727491,-0.0006201107098075121,0.02498344058064828
6.174469787915166,-0.0013143616973344356,0.024634784818298967
6.1784713885554225,0.018162103047758546,0.02544531140728906
6.182472989195679,-0.010401016107507318,0.024510505294080838
6.186474589835934,-0.00428745791082361,0.024660067239396764
6.190476190476191,-0.011723050292867824,0.023117905625326396
6.194477791116447,0.02913094411361583,0.022717522176532425
6.1984793917567025,0.005197954223651241,0.020992866276114307
6.202480992396959,-0.0009738620587273006,0.019246633136638366
6.206482593037215,0.0013982147294451302,0.01741124783749251
6.2104841936774715,-0.0012011532768091112,0.016070000242192795
6.214485794317727,-0.0003666005611907885,0.016588519147199072
6.218487394957983,-0.002044438983867385,0.016755852459402115
6.22248899559824,-0.006530417367925416,0.017894677235055896
6.226490596238496,0.015540224308061776,0.017066004557849138
6.230492196878751,-0.007273606234860637,0.016566377729656395
6.234493797519008,-0.012345159583213354,0.015523628183926786
6.238495398159264,-0.023544805711777837,0.015010072474143474
6.2424969987995205,0.02430383842416118,0.013270335514389617
6.246498599439776,-7.331373524538727e-06,0.013493289290352463
6.250500200080032,0.00498152525845205,0.01430977192891994
6.254501800720289,0.004071059320778358,0.013899362491869384
6.258503401360544,0.005655639110449279,0.013409820963565253
6.2625050020008,-0.009361791171445668,0.014671113775173024
6.266506602641057,-0.00916194049082929,0.016521603621620043
6.270508203281313,0.01768659708063284,0.015766004326123365
6.2745098039215685,-0.018618491664350728,0.014953502752496578
6.278511404561825,0.011198518684940192,0.015580832602952394
6.282513005202081,0.023713735196685386,0.015999219856124732
6.286514605842338,-0.008384036642796968,0.016696492005158353
6.290516206482593,0.013634387771170209,0.01810453237659982
6.294517807122849,-0.01226355668104844,0.01921865323293528
6.298519407763106,0.017832245542576213,0.02096495879856056
6.302521008403361,0.011900649246760063,0.02144680792211375
6.3065226090436175,0.012339169210112204,0.022061184584436497
6.310524209683874,-0.015346460424800075,0.023840737027861596
6.31452581032413,0.008540171474590179,0.021467582768418807
6.318527410964386,-0.01839102254363472,0.019797466157061294
6.322529011604642,0.00048212040159275774,0.021715964695024712
6.326530612244898,-0.004481227918341528,0.02372752106399374
6.330532212885155,0.01674663460896575,0.024953106955975326
6.33453381352541,-0.010680569493889751,0.025999297149359456
6.3385354141656665,-0.027030057812118553,0.026936092853148182
6.342537014805923,0.0007146420523292607,0.02683876574641872
6.346538615446179,-0.01770749857351758,0.026949031279808
6.350540216086435,-0.0018300563506682553,0.02411009833932076
6.354541816726691,0.0055381965778327005,0.023058623501722636
6.358543417366947,0.0012719064385730652,0.02196804528893645
6.362545018007203,0.00476012902431957,0.022327527495460655
6.366546618647459,0.00704957541152037,0.0244243862544803
6.370548219287715,0.021600689660076146,0.022616604880172465
6.374549819927972,0.007273271089938495,0.022597077915568812
6.378551420568227,0.021044302221985355,0.021020702052462214
6.382553021208484,-0.006853393932465709,0.019956128276737994
6.38655462184874,0.021240586846163,0.017753002063931867
6.390556222488996,0.0074774630599828236,0.017161302276083486
6.394557823129252,0.0029903134447255863,0.015385996323769314
6.398559423769508,-0.0073968013156283435,0.01869174040318074
6.402561024409764,0.01756721849172278,0.019128786117357615
6.40656262505002,-0.027331839426627518,0.01980151110611654
6.410564225690276,0.00040685129500299465,0.01920243345089312
6.4145658263305325,-0.003439165119560076,0.018296192638157006
6.418567426970789,-0.01541468246706362,0.01935479444174223
6.422569027611044,0.015398277018353957,0.017051075519800455
6.426570628251301,-0.008689414891340138,0.01792245245752165
6.430572228891557,0.0037435519292098336,0.019805386262659933
6.434573829531813,-0.010926624359980102,0.023884614743089016
6.438575430172069,0.01178651767702853,0.023203184959490343
6.442577030812325,0.010300667958091293,0.02263803813061132
6.4465786314525815,0.010778722260997197,0.021669726480176812
6.450580232092838,-0.005885820123675791,0.02294155460045786
6.454581832733093,0.008374695637736284,0.02100761224171264
6.45858343337335,0.0006711494252282693,0.02052082065728566
6.462585034013606,0.004754344627196207,0.018906349524953885
6.466586634653861,-0.017508726835293288,0.01958085695080316
6.470588235294118,0.008953061545820186,0.02072516558531209
6.474589835934374,0.016514400649122702,0.021254546387834947
6.47859143657463,-0.011129690961283807,0.019426026992331605
6.482593037214886,0.027626600093000213,0.01645861641277709
6.486594637855142,-0.012338550603624533,0.016499987680333048
6.490596238495399,0.003739920950330511,0.016705856118555247
6.494597839135655,0.01784021762513039,0.01703364228094025
6.49859943977591,0.018002184029754512,0.01602475609039963
6.502601040416167,-0.0173960437627964,0.01724962128006571
6.506602641056423,0.0038862942398518196,0.0184057926606236
6.5106042416966785,0.01618544349449827,0.02101988290651322
6.514605842336935,-0.0035761673448708614,0.021106294043385182
6.518607442977191,-0.02573442343014466,0.02007932340385148
6.5226090436174475,0.01010974976385631,0.021184677474293416
6.526610644257703,0.0043654520360295185,0.02308128314659408
6.530612244897959,-0.015424237022177349,0.024493418021249342
6.534613845538216,0.018197289717038996,0.024996692926159043
6.538615446178472,0.008487558319504837,0.026786032295660636
6.5426170468187275,-0.011226907811554202,0.02460513284727542
6.546618647458984,0.005675299169857174,0.027231962677202546
6.55062024809924,0.011875344708038981,0.026229426166062633
6.5546218487394965,-0.008344140707508418,0.025170602412180665
6.558623449379752,0.003889264290517861,0.023260535068958664
6.562625050020008,0.012548189863385807,0.02417761860335605
6.566626650660265,-0.007157794546398366,0.024920778517848644
6.57062825130052,0.00404451009162393,0.023885580086839362
6.574629851940776,0.013677497828684763,0.02195602102701703
6.578631452581033,-0.0008305029025593104,0.021091851774303783
6.582633053221289,0.004808094417618877,0.021789649972042073
6.586634653861545,-0.007730978056453914,0.019864897347684637
6.590636254501801,0.0003964377412273832,0.02126931115801
6.594637855142057,-0.01007347468752987,0.018361463557339835
6.598639455782314,0.009930807861219706,0.017412055958212862
6.602641056422569,-0.009690297260150367,0.018869694488053725
6.606642657062825,-0.01055260757045619,0.016585299670774496
6.610644257703082,-0.004562387781157259,0.014489454419734992
6.614645858343337,0.010020215270947047,0.014371024961064374
6.6186474589835935,0.010291725661214227,0.01267570356528168
6.62264905962385,0.007385046232559313,0.013364161315416354
6.626650660264106,0.011844092085648307,0.013059777950715262
6.630652260904362,-0.02477563983478638,0.013270495305635954
6.634653861544618,0.028065038402848932,0.014313525604096804
6.638655462184874,-0.011284945260569921,0.013063487420659076
6.642657062825131,-0.006171705544972979,0.013511549514598525
6.646658663465386,-0.006832488769864864,0.014489442269984127
6.6506602641056425,-0.003169058817287439,0.013504468602768544
6.654661864745899,0.017331890592511074,0.015228454105263745
6.658663465386155,-0.019162969611493597,0.01835402545601539
6.662665066026411,0.0010847864257926185,0.02153696833333592
6.666666666666667,0.018678793253349448,0.023241374480605308
6.670668267306923,-0.004486141078803586,0.022630620499861257
6.674669867947179,-0.015913452157311478,0.022145632626534597
6.678671468587435,-0.018809549508541638,0.021124846364498184
6.682673069227691,-0.002783465035283959,0.0221860250096287
6.686674669867948,-0.00409823719933882,0.024471491716716722
6.690676270508203,-0.011753279669767464,0.023072806008403137
6.69467787114846,-0.0034887629395848915,0.024385655316373517
6.698679471788716,0.009122885625931052,0.02393188222069121
6.702681072428972,-0.007225755451694976,0.02456886964153602
6.706682673069228,-0.007321208457688699,0.023634982145095188
6.710684273709484,-0.005289925318465826,0.019677592302293153
6.71468587434974,-0.009473376318020879,0.018552638365637163
6.718687474989996,0.0017321321338125586,0.019426336549969583
6.722689075630252,-0.006131313920501637,0.018902934527259975
6.7266906762705085,0.004998878197206678,0.01983490238368133
6.730692276910765,-0.009165505188188174,0.018252963001397452
6.73469387755102,0.02422438718296513,0.01639934160570229
6.738695478191277,-0.008398589255045134,0.01705758283537144
6.742697078831533,0.0016382512902510633,0.01561663519540516
6.746698679471789,-0.007609473888578491,0.015185543076752612
6.750700280112045,-0.01568530553124227,0.013654319764958974
6.754701880752301,-0.022952584790778458,0.011492499787414649
6.7587034813925575,-0.011905075687393976,0.012491496982338458
6.762705082032813,-0.004911569735825965,0.015641895114683193
6.766706682673069,0.00014458439119529993,0.015116776777309474
6.770708283313326,0.002988851675453695,0.014827111419121923
6.774709883953582,-0.009637882873521556,0.014590213179036114
6.778711484593837,-0.004567128102666316,0.01591440835758564
6.782713085234094,-0.006317496402273374,0.018361227985075605
6.78671468587435,-0.0180965766548331,0.01939671452295819
6.7907162865146065,-0.001556127620134201,0.018682643180532702
6.794717887154862,0.016509537935523462,0.018434140240456313
6.798719487795118,-0.0027076732819207514,0.017942242525502528
6.802721088435375,-0.022340220674580975,0.018668397884579687
6.806722689075631,0.0017019301484954806,0.017948602067007494
6.810724289715886,0.008856490840640397,0.01514559029786694
6.814725890356143,0.010036894546586076,0.016663641262241694
6.818727490996399,-0.007258822706587126,0.016650786232483495
6.8227290916366545,0.014339836338696217,0.018043936197780133
6.826730692276911,-0.007330344271295808,0.01601251397178156
6.830732292917167,0.02633906223061545,0.015916659038296862
6.834733893557424,-0.012676759862198142,0.01431953436835561
6.838735494197679,0.005435702740534693,0.014937043036976561
6.842737094837935,0.01668173135095486,0.0164855118431552
6.846738695478192,0.02280493285817614,0.01715390141456319
6.850740296118448,-0.002753027266856117,0.017889910309811873
6.8547418967587035,0.001878807618641797,0.018322443658912287
6.85874349739896,-0.006655318331336252,0.02145647096386339
6.862745098039216,0.003947848935396307,0.020608093071665484
6.866746698679472,0.014102523564638795,0.02121537296491602
6.870748299319728,0.011590908843075337,0.021242326844064213
6.874749899959984,0.004452886043429584,0.02438820268647779
6.878751500600241,0.007000802066487515,0.021322168816126336
6.882753101240496,-0.013908967409053416,0.02134985590243227
6.8867547018807524,0.01226179547885202,0.021005300696000737
6.890756302521009,0.017207644403178436,0.020052166691888647
6.894757903161265,-0.023833720600055616,0.021123428826925535
6.898759503801521,0.004017201838626189,0.020693132120640393
6.902761104441777,0.007731755643733538,0.020242716167547293
6.906762705082033,0.02133066376357104,0.017215648459444673
6.91076430572229,0.002025612305313928,0.01740852908278456
6.914765906362545,-0.015871398057497054,0.018477034973454275
6.918767507002801,0.008967522559550434,0.01855935749906642
6.922769107643058,0.019494265079906658,0.01872039629601631
6.926770708283313,0.010768648222011224,0.018918280800161526
6.9307723089235695,0.023124321591455995,0.019834457840577156
6.934773909563826,0.017731834906909508,0.022131627486974483
6.938775510204082,-0.007769232078823492,0.021830734832678313
6.942777110844338,0.024681880060028454,0.02210762131634193
6.946778711484594,0.02261684240622783,0.02169697589957024
6.95078031212485,-0.01512015630299154,0.024051441729495887
6.954781912765107,0.02787411573870548,0.024641232399891425
6.958783513405362,0.00615900417450786,0.02608373554275558
6.9627851140456185,0.011836945155793473,0.02693997491352566
6.966786714685875,0.004345106104433435,0.025462555904766503
6.97078831532613,0.00456110911178907,0.025595320491177853
6.974789915966387,0.005564843179911225,0.028506770170034803
6.978791516606643,0.004096489480082088,0.029663295568925184
6.982793117246899,0.0004383203744060689,0.03068755897242372
6.986794717887155,0.0020601014995871134,0.03133456945557879
6.990796318527411,0.020360194190390316,0.030703046144021424
6.9947979191676675,-0.0226697681509455,0.029979487381964726
6.998799519807924,0.0192792699287049,0.027641961987875725
7.002801120448179,0.021067464294813713,0.026827396971762094
7.006802721088436,-0.02297181399411501,0.023848921366889323
7.010804321728692,-0.017862665706321165,0.021141922962862773
7.014805922368948,-0.008901519062528484,0.02024825803793818
7.018807523009204,-0.004148010619448838,0.01957177340956339
7.02280912364946,-0.014988749141587817,0.019580058012800827
7.026810724289716,-0.0211362886769326,0.020231094788802036
7.030812324929972,-0.018550692379286682,0.019165632094058943
7.034813925570228,-0.0033595663526605752,0.021797384550353318
7.038815526210485,-0.020868444173649293,0.022740606119498824
7.042817126850741,-0.000744456453170528,0.023453833184041824
7.046818727490996,-0.01952122136702637,0.02338916981226919
7.050820328131253,-4.850741064196042e-05,0.024864318102687973
7.054821928771509,-0.020127983050195013,0.027531601791270267
7.058823529411765,-0.008358486899011352,0.030366778066063572
7.062825130052021,-0.006029511977388228,0.030570186648902355
7.066826730692277,-0.020354677305330256,0.030649744328802683
7.0708283313325335,-0.01501592478115245,0.02721771877598004
7.074829931972789,-0.011799506797261187,0.027255592058253408
7.078831532613045,-0.010327357818318837,0.023965440560545146
7.082833133253302,-0.02919811444972268,0.023520288372882902
7.086834733893558,-0.01487374498310302,0.02203257476703287
7.0908363345338135,-0.002780689838597689,0.02158301209536105
7.09483793517407,-0.04996908237359911,0.024119883404591702
7.098839535814326,-0.033851895590774846,0.024124137277498313
7.1028411364545825,-0.03694968293629387,0.022662626744199228
7.106842737094838,-0.009417552282969827,0.02137540698962145
7.110844337735094,-0.016407015297523374,0.025419981522441126
7.114845938375351,-0.017763717751846035,0.024481615806731468
7.118847539015607,-0.03409356941723879,0.02480035266696984
7.122849139655862,-0.016971989098244735,0.029566434830077908
7.126850740296119,-0.022303034999695714,0.034857766310577326
7.130852340936375,-0.021866871950279632,0.037490910351893905
7.1348539415766306,-0.028168483954649784,0.037656688586199444
7.138855542216887,-0.041675097523848605,0.03928110592904707
7.142857142857143,-0.020531719404857054,0.038875536351908956
7.1468587434974,-0.06698395324355376,0.04186180923966738
7.150860344137655,-0.04250888851739699,0.04267147122637929
7.154861944777911,-0.07845105215533937,0.044546054843040556
7.158863545418168,-0.06141959081967237,0.043398476558231903
7.162865146058424,-0.08229372761444835,0.045479536316807005
7.1668667466986795,-0.10804152616996637,0.05156777820261011
7.170868347338936,-0.09276945841198361,0.04695987190193524
7.174869947979192,-0.0849271100681922,0.05214611828462496
7.178871548619448,-0.07777285329054025,0.05301631506315817
7.182873149259704,-0.08523158361200081,0.06382230673290462
7.18687474989996,-0.07997697502549997,0.07086824119987285
7.190876350540217,-0.0872691877137753,0.08096928997058762
7.194877951180472,-0.06871722846708346,0.09254455424289168
7.1988795518207285,-0.08720176916259724,0.10440932748351298
7.202881152460985,-0.08195279303553595,0.11421203536833517
7.206882753101241,-0.0944195815925744,0.12296314272590458
7.210884353741497,-0.08869665352539886,0.1318953767961353
7.214885954381753,-0.08020942935104981,0.1378908684050455
7.218887555022009,-0.09414933938432213,0.14833745633611434
7.222889155662265,-0.08510517300496352,0.1486087703743924
7.226890756302521,-0.09766577030514621,0.15560466217825422
7.230892356942777,-0.09443425003820968,0.15615279870401308
7.234893957583034,-0.07921964769442816,0.1613183723175916
7.238895558223289,-0.061063723951324395,0.1623206388140557
7.242897158863546,-0.07992988802106533,0.15796400896140694
7.246898759503802,-0.06394671745548075,0.15818000528666784
7.250900360144058,-0.0698430900867897,0.15820787793712016
7.254901960784314,-0.06125713600361843,0.16132176751166316
7.25890356142457,-0.03533147560373956,0.16276228460734748
7.262905162064826,-0.03921096798491958,0.16264373820819397
7.266906762705083,-0.010986378514188443,0.15854172942054118
7.270908363345338,-0.005938080014761749,0.16029687592129868
7.2749099639855945,0.02992217240239019,0.15665670273739202
7.278911564625851,0.025770057726944615,0.1547611397219113
7.282913165266106,0.06060595807006628,0.14957013663724647
7.286914765906363,0.07956726113656358,0.14121674778774393
7.290916366546619,0.060351066242983344,0.13479915295604764
7.294917967186875,0.08450146753470202,0.12178144033745564
7.298919567827131,0.08049305123285895,0.10938921121750965
7.302921168467387,0.09108846919200574,0.09878513122780556
7.3069227691076435,0.0782508563406189,0.08803694822249375
7.3109243697479,0.08509454087643181,0.0851232994085705
7.314925970388155,0.0787379299009265,0.08801970577727855
7.318927571028412,0.068990602853692,0.08495498233969308
7.322929171668668,0.046542349936387416,0.08817247034972349
7.326930772308923,0.03146347349647498,0.08983953621832809
7.33093237294918,0.013699628918555388,0.09450911169294729
7.334933973589436,-0.04001687524411984,0.10122739298494107
7.3389355742296924,-0.05430942478865021,0.10840966691514252
7.342937174869948,-0.05863742901963568,0.11901499188419457
7.346938775510204,-0.08909289568286459,0.12888476580285232
7.350940376150461,-0.09037860492984004,0.13148636503096803
7.354941976790717,-0.1311860552326482,0.13237757007622422
7.358943577430972,-0.11923611101173485,0.12503520147247787
7.362945178071229,-0.1294818925713218,0.11884427762711071
7.366946778711485,-0.14728148015279122,0.11789856391785622
7.370948379351741,-0.122890920530044,0.11384999930420445
7.374949979991997,-0.11306017350080828,0.11519615512217234
7.378951580632253,-0.043236398821488116,0.11508503823953137
7.3829531812725095,0.0836642668001328,0.12337112136324951
7.386954781912765,0.27128808609388827,0.12871538933686003
7.390956382553021,0.5024739945408928,0.13665847260686656
7.394957983193278,0.7635114808055473,0.14891354542622712
7.398959583833534,0.9065702932639933,0.16086458397066453
7.4029611844737895,0.971061836626739,0.1736371257388755
7.406962785114046,0.9206915428290365,0.17826059246318188
7.410964385754302,0.7355644135141861,0.1850928311651518
7.4149659863945585,0.4915910746187098,0.2190570602845215
7.418967587034814,0.23040781071830843,0.28853194187995984
7.42296918767507,0.005129513323413041,0.39410042133169926
7.426970788315327,-0.1692382075302865,0.521861010051108
7.430972388955582,-0.25960096016554557,0.6533289309032398
7.434973989595838,-0.2793395651239063,0.7787828154071769
7.438975590236095,-0.2802889235999601,0.8736544745957743
7.442977190876351,-0.25856211889554936,0.9275501428798861
7.446978791516607,-0.23221607836947908,0.944380038827208
7.450980392156863,-0.19668375624777168,0.9274853743969901
7.454981992797119,-0.2089546607255963,0.9472087622854438
7.458983593437376,-0.1674510814728437,0.974748586376998
7.462985194077631,-0.18013546675703626,0.9760089051423564
7.466986794717887,-0.1823972031019635,0.9412297033031244
7.470988395358144,-0.18337197852260426,0.8621886781699459
7.4749899959984,-0.1805185460877769,0.7566302747559368
7.4789915966386555,-0.18468118030441386,0.6354148778648602
7.482993197278912,-0.20003606062863055,0.5240048691983372
7.486994797919168,-0.1908408369296685,0.4350766250145627
7.490996398559424,-0.18156789409582658,0.3863236759351819
7.49499799919968,-0.1711555033648901,0.37880845177704336
7.498999599839936,-0.1546475660233804,0.40670920427689516
7.503001200480193,-0.15302009222563867,0.40847494474651536
7.507002801120448,-0.16376005841289384,0.39674755849816634
7.5110044017607045,-0.11919496363729414,0.38433397653372875
7.515006002400961,-0.14278583799209896,0.3703324369736463
7.519007603041217,-0.1283382023067463,0.3582803325121514
7.523009203681473,-0.11561526682723462,0.348722363322274
7.527010804321729,-0.10097688190191849,0.3421423301176348
7.531012404961985,-0.08959270937459626,0.3333867479382743
7.535014005602241,-0.05123663862177222,0.3328089825850414
7.539015606242497,-0.03907615341991782,0.3232698085567858
7.5430172068827535,-0.022598854626561388,0.31706933947734106
7.54701880752301,0.019441802261332856,0.30845476063601435
7.551020408163265,0.03218097868326677,0.2982952830443333
7.555022008803522,0.039638869687794724,0.2851928334664964
7.559023609443778,0.10753093068902976,0.267904851025559
7.563025210084034,0.11081551007690825,0.24605224603282622
7.56702681072429,0.16074111760757864,0.22374764659055124
7.571028411364546,0.21287695539499235,0.200493691456888
7.575030012004802,0.236915817685968,0.17932958476063796
7.579031612645059,0.2611457708272266,0.16041432685349752
7.583033213285314,0.28722124411149524,0.1409853172584142
7.5870348139255706,0.28902780267836425,0.13915951611682903
7.591036414565827,0.31694542844214263,0.13415511828433718
7.595038015206082,0.33374743310204646,0.139227230135303
7.599039615846339,0.3327194009149088,0.15445185294005417
7.603041216486595,0.3613569066522583,0.1757307249426684
7.607042817126851,0.3462317114539866,0.20258436783204772
7.611044417767107,0.3496822565932207,0.23952364638267792
7.615046018407363,0.31634187833169175,0.2786492222946594
7.6190476190476195,0.31017283228315795,0.32472405017605227
7.623049219687876,0.29033522185764327,0.37392312069831257
7.627050820328131,0.263310704411318,0.4209671745718395
7.631052420968388,0.25262099137436816,0.4713265281302215
7.635054021608644,0.20517751026776457,0.5086909765976603
7.6390556222488994,0.16370751059604852,0.5460814041119377
7.643057222889156,0.16338125594953543,0.5704379922510241
7.647058823529412,0.12941177728019476,0.5856679666416895
7.6510604241696685,0.129058397949493,0.594029843665876
7.655062024809924,0.10227253304762884,0.5943687262999376
7.65906362545018,0.09400179607337236,0.5889526595564034
7.663065226090437,0.042182627724130506,0.5758273571601764
7.667066826730693,0.023981038216772364,0.5518406309070439
7.671068427370948,-0.002887609906510876,0.5251727740763716
7.675070028011205,-0.0038430504099420215,0.49334850772084266
7.679071628651461,-0.004532512366357891,0.45698622340123635
7.6830732292917165,-0.028265796128086204,0.4187986643974021
7.687074829931973,-0.04706854570397728,0.37877634289258943
7.691076430572229,-0.04196628871564988,0.33586148874603045
7.695078031212486,-0.07468056265389308,0.2910631495578278
7.699079631852741,-0.0800089364152776,0.24606823395923916
7.703081232492997,-0.06982944820803495,0.2054530932972236
7.707082833133254,-0.06894093517094943,0.16661916422688788
7.71108443377351,-0.09196350037266757,0.1389267176204094
7.7150860344137655,-0.09123642461477122,0.12066891980743714
7.719087635054022,-0.11125218834459548,0.10166352203769385
7.723089235694278,-0.09771475568598696,0.09309630394183663
7.7270908363345345,-0.11151178458625052,0.08541846530227458
7.73109243697479,-0.08433907105966931,0.0803400656098689
7.735094037615046,-0.11917921825346128,0.07641722445812472
7.739095638255303,-0.091714870736718,0.084209552764633
7.743097238895558,-0.11993231902841466,0.09473721174912611
7.7470988395358145,-0.08426610031669327,0.11169979852311948
7.751100440176071,-0.09019669080483791,0.12639377850549377
7.755102040816327,-0.1240193767694072,0.14313951972650915
7.759103641456583,-0.0935815590437141,0.15191681398112958
7.763105242096839,-0.07365514329195667,0.1632044834214765
7.767106842737095,-0.09210022101257977,0.17099175719283755
7.771108443377352,-0.10734862959254299,0.17807513125511934
7.775110044017607,-0.08066829712938674,0.17874151609350206
7.779111644657863,-0.09661147570756647,0.18192965307400663
7.78311324529812,-0.08795352444354443,0.19055122350279738
7.787114845938375,-0.09826040828356912,0.19080450239714308
7.791116446578632,-0.08972480161200053,0.1880524591157066
7.795118047218888,-0.096439670354389,0.18505455230478662
7.799119647859144,-0.06475954602340052,0.18656256741881244
7.8031212484994,-0.11672604374142789,0.18173455682770814
7.807122849139656,-0.09540370476871822,0.18365558795952266
7.811124449779912,-0.07376568970498604,0.1787677496228332
7.815126050420169,-0.07721541509323386,0.17979233948624815
7.819127651060424,-0.07241009703430493,0.17506387892479627
